  10.0000        12
  10.0500         9
  10.1000        10
  10.1500        11
  10.2000         3
  10.2500        10
  10.3000        14
  10.3500         7
  10.4000         8
  10.4500        12
  10.5000        14
  10.5500         9
  10.6000        12
  10.6500        15
  10.7000        10
  10.7500        10
  10.8000        16
  10.8500        11
  10.9000         6
  10.9500        15
  11.0000         8
  11.0500         9
  11.1000         7
  11.1500         7
  11.2000        10
  11.2500        12
  11.3000         8
  11.3500         9
  11.4000         9
  11.4500        10
  11.5000        15
  11.5500        12
  11.6000        11
  11.6500         8
  11.7000        10
  11.7500        11
  11.8000         9
  11.8500        10
  11.9000        10
  11.9500        10
  12.0000         5
  12.0500        16
  12.1000        12
  12.1500        10
  12.2000         9
  12.2500        15
  12.3000        10
  12.3500         9
  12.4000        11
  12.4500        16
  12.5000        11
  12.5500         9
  12.6000         6
  12.6500        12
  12.7000         9
  12.7500         9
  12.8000         8
  12.8500        13
  12.9000        10
  12.9500         7
  13.0000        11
  13.0500        14
  13.1000        12
  13.1500        13
  13.2000        10
  13.2500         6
  13.3000        14
  13.3500        14
  13.4000        13
  13.4500        12
  13.5000         9
  13.5500        12
  13.6000        14
  13.6500        12
  13.7000         8
  13.7500         9
  13.8000         5
  13.8500         8
  13.9000        11
  13.9500         7
  14.0000         7
  14.0500         8
  14.1000         7
  14.1500        12
  14.2000        11
  14.2500        10
  14.3000        13
  14.3500        10
  14.4000        12
  14.4500         8
  14.5000         9
  14.5500         6
  14.6000        14
  14.6500        12
  14.7000         7
  14.7500        15
  14.8000         9
  14.8500        16
  14.9000         7
  14.9500         9
  15.0000         8
  15.0500        14
  15.1000         8
  15.1500         6
  15.2000        10
  15.2500         4
  15.3000        11
  15.3500        11
  15.4000        12
  15.4500        15
  15.5000        14
  15.5500         7
  15.6000        11
  15.6500         8
  15.7000        13
  15.7500         8
  15.8000        11
  15.8500         9
  15.9000        13
  15.9500        10
  16.0000        10
  16.0500         9
  16.1000        14
  16.1500        22
  16.2000        14
  16.2500         9
  16.3000         7
  16.3500         7
  16.4000         7
  16.4500        14
  16.5000        13
  16.5500        16
  16.6000        14
  16.6500         8
  16.7000         8
  16.7500        11
  16.8000         9
  16.8500        10
  16.9000         7
  16.9500        12
  17.0000        10
  17.0500         9
  17.1000        11
  17.1500        12
  17.2000        20
  17.2500        17
  17.3000        16
  17.3500        13
  17.4000         7
  17.4500        10
  17.5000        15
  17.5500         8
  17.6000         8
  17.6500        17
  17.7000        12
  17.7500        14
  17.8000        11
  17.8500        11
  17.9000        14
  17.9500         7
  18.0000        11
  18.0500         6
  18.1000        15
  18.1500        13
  18.2000        10
  18.2500         7
  18.3000         6
  18.3500         8
  18.4000        11
  18.4500        14
  18.5000        16
  18.5500        13
  18.6000        12
  18.6500         9
  18.7000         9
  18.7500        10
  18.8000        12
  18.8500        16
  18.9000        10
  18.9500         7
  19.0000        10
  19.0500         2
  19.1000        10
  19.1500         8
  19.2000        18
  19.2500         8
  19.3000        10
  19.3500         7
  19.4000        10
  19.4500        16
  19.5000        11
  19.5500        14
  19.6000        10
  19.6500        13
  19.7000        11
  19.7500        12
  19.8000         7
  19.8500        15
  19.9000         8
  19.9500        10
  20.0000         8
  20.0500         8
  20.1000        14
  20.1500        15
  20.2000        15
  20.2500         7
  20.3000        11
  20.3500         5
  20.4000        11
  20.4500        11
  20.5000        11
  20.5500        13
  20.6000         7
  20.6500        11
  20.7000         5
  20.7500        12
  20.8000         9
  20.8500         8
  20.9000         9
  20.9500         8
  21.0000        12
  21.0500         5
  21.1000        11
  21.1500        16
  21.2000        10
  21.2500         8
  21.3000         9
  21.3500        18
  21.4000         7
  21.4500         9
  21.5000        12
  21.5500        10
  21.6000         9
  21.6500        10
  21.7000        10
  21.7500         9
  21.8000        11
  21.8500         9
  21.9000         6
  21.9500         7
  22.0000         4
  22.0500         8
  22.1000         8
  22.1500        10
  22.2000         7
  22.2500         9
  22.3000        13
  22.3500         9
  22.4000         9
  22.4500        16
  22.5000        11
  22.5500        13
  22.6000        14
  22.6500         6
  22.7000        13
  22.7500        11
  22.8000         7
  22.8500         9
  22.9000        11
  22.9500         7
  23.0000        12
  23.0500        15
  23.1000         5
  23.1500        11
  23.2000        13
  23.2500        13
  23.3000         8
  23.3500         7
  23.4000        10
  23.4500        11
  23.5000        15
  23.5500         9
  23.6000        12
  23.6500        13
  23.7000        11
  23.7500        10
  23.8000        12
  23.8500        11
  23.9000        11
  23.9500        11
  24.0000        10
  24.0500        12
  24.1000        10
  24.1500         9
  24.2000        13
  24.2500        16
  24.3000         5
  24.3500        12
  24.4000        12
  24.4500         8
  24.5000         7
  24.5500        12
  24.6000        11
  24.6500         8
  24.7000        10
  24.7500         9
  24.8000        11
  24.8500        11
  24.9000         9
  24.9500         8
  25.0000        15
  25.0500         9
  25.1000        10
  25.1500        10
  25.2000         8
  25.2500         6
  25.3000         7
  25.3500        10
  25.4000        10
  25.4500         8
  25.5000         7
  25.5500        10
  25.6000        13
  25.6500         7
  25.7000        13
  25.7500         7
  25.8000        12
  25.8500         8
  25.9000         7
  25.9500        11
  26.0000        11
  26.0500        11
  26.1000         6
  26.1500        12
  26.2000         8
  26.2500         5
  26.3000        11
  26.3500         6
  26.4000        11
  26.4500        15
  26.5000        17
  26.5500         9
  26.6000        14
  26.6500        13
  26.7000         9
  26.7500         7
  26.8000         5
  26.8500        12
  26.9000         9
  26.9500         5
  27.0000        10
  27.0500         7
  27.1000        11
  27.1500        10
  27.2000        10
  27.2500         9
  27.3000        12
  27.3500         8
  27.4000         6
  27.4500        13
  27.5000         9
  27.5500         9
  27.6000        11
  27.6500        13
  27.7000         7
  27.7500        14
  27.8000         9
  27.8500        10
  27.9000         8
  27.9500        13
  28.0000         8
  28.0500         8
  28.1000         9
  28.1500         5
  28.2000         7
  28.2500         9
  28.3000         9
  28.3500         9
  28.4000         6
  28.4500        11
  28.5000         7
  28.5500         4
  28.6000         8
  28.6500        10
  28.7000         6
  28.7500         8
  28.8000         8
  28.8500         9
  28.9000        11
  28.9500         8
  29.0000         9
  29.0500         5
  29.1000         9
  29.1500         7
  29.2000         9
  29.2500        13
  29.3000         9
  29.3500         6
  29.4000        16
  29.4500        10
  29.5000         8
  29.5500        11
  29.6000         9
  29.6500        13
  29.7000         9
  29.7500         9
  29.8000        11
  29.8500         8
  29.9000         7
  29.9500        11
  30.0000        14
  30.0500         6
  30.1000        12
  30.1500         9
  30.2000        10
  30.2500        11
  30.3000         8
  30.3500        13
  30.4000         8
  30.4500         8
  30.5000        17
  30.5500        12
  30.6000         7
  30.6500        10
  30.7000         9
  30.7500        12
  30.8000        13
  30.8500        12
  30.9000        10
  30.9500        13
  31.0000         9
  31.0500        11
  31.1000        20
  31.1500        12
  31.2000        14
  31.2500        14
  31.3000        12
  31.3500        11
  31.4000        15
  31.4500         9
  31.5000        11
  31.5500         7
  31.6000        10
  31.6500        15
  31.7000        13
  31.7500         8
  31.8000        18
  31.8500        10
  31.9000         8
  31.9500        11
  32.0000        10
  32.0500        14
  32.1000        13
  32.1500         9
  32.2000         7
  32.2500         8
  32.3000        17
  32.3500        10
  32.4000         8
  32.4500         8
  32.5000         9
  32.5500        13
  32.6000        10
  32.6500         5
  32.7000         9
  32.7500        12
  32.8000         5
  32.8500        10
  32.9000         5
  32.9500         8
  33.0000         9
  33.0500        12
  33.1000        14
  33.1500        17
  33.2000        12
  33.2500         6
  33.3000        12
  33.3500        11
  33.4000         7
  33.4500        11
  33.5000        18
  33.5500        10
  33.6000        12
  33.6500        12
  33.7000         9
  33.7500         7
  33.8000        10
  33.8500        11
  33.9000         8
  33.9500         5
  34.0000         8
  34.0500        11
  34.1000        11
  34.1500         9
  34.2000         9
  34.2500         9
  34.3000         9
  34.3500         7
  34.4000        14
  34.4500         5
  34.5000        14
  34.5500        13
  34.6000         8
  34.6500         9
  34.7000         7
  34.7500        17
  34.8000        14
  34.8500         9
  34.9000        13
  34.9500        11
  35.0000        12
  35.0500        15
  35.1000        11
  35.1500        15
  35.2000        15
  35.2500         8
  35.3000         8
  35.3500        12
  35.4000         7
  35.4500        13
  35.5000        10
  35.5500         7
  35.6000        12
  35.6500        12
  35.7000        20
  35.7500        13
  35.8000        14
  35.8500         9
  35.9000         9
  35.9500        11
  36.0000        10
  36.0500         5
  36.1000         8
  36.1500        12
  36.2000        11
  36.2500        13
  36.3000         8
  36.3500        11
  36.4000         6
  36.4500        11
  36.5000        11
  36.5500         7
  36.6000        15
  36.6500         4
  36.7000         6
  36.7500        10
  36.8000         9
  36.8500        10
  36.9000         9
  36.9500         8
  37.0000        10
  37.0500        11
  37.1000        13
  37.1500         5
  37.2000         9
  37.2500         9
  37.3000        10
  37.3500        12
  37.4000        17
  37.4500         5
  37.5000         8
  37.5500         6
  37.6000         8
  37.6500        12
  37.7000         8
  37.7500        11
  37.8000         8
  37.8500        14
  37.9000        15
  37.9500         8
  38.0000        16
  38.0500        16
  38.1000        14
  38.1500        20
  38.2000        14
  38.2500        15
  38.3000        20
  38.3500         4
  38.4000        10
  38.4500        18
  38.5000        11
  38.5500        31
  38.6000        46
  38.6500        33
  38.7000        23
  38.7500        10
  38.8000        12
  38.8500        23
  38.9000         6
  38.9500        17
  39.0000         7
  39.0500         9
  39.1000         5
  39.1500         9
  39.2000        11
  39.2500        13
  39.3000         6
  39.3500         7
  39.4000         9
  39.4500        11
  39.5000         8
  39.5500        14
  39.6000        11
  39.6500         9
  39.7000         6
  39.7500         8
  39.8000        11
  39.8500         8
  39.9000        11
  39.9500         9
  40.0000        12
  40.0500         8
  40.1000        14
  40.1500         9
  40.2000        11
  40.2500        13
  40.3000        16
  40.3500        15
  40.4000         8
  40.4500         8
  40.5000        11
  40.5500        17
  40.6000        20
  40.6500         8
  40.7000        15
  40.7500        14
  40.8000         9
  40.8500        16
  40.9000        13
  40.9500        12
  41.0000        15
  41.0500         8
  41.1000        16
  41.1500        13
  41.2000         5
  41.2500        10
  41.3000        13
  41.3500         9
  41.4000        11
  41.4500        17
  41.5000        14
  41.5500         8
  41.6000        17
  41.6500         9
  41.7000        15
  41.7500        12
  41.8000         6
  41.8500         8
  41.9000        12
  41.9500        10
  42.0000        14
  42.0500         9
  42.1000        11
  42.1500         8
  42.2000        11
  42.2500        19
  42.3000         9
  42.3500         6
  42.4000        11
  42.4500        10
  42.5000        15
  42.5500        11
  42.6000        12
  42.6500        10
  42.7000        13
  42.7500         6
  42.8000        14
  42.8500        10
  42.9000        18
  42.9500        19
  43.0000        18
  43.0500        14
  43.1000        17
  43.1500        22
  43.2000        24
  43.2500        15
  43.3000        14
  43.3500        13
  43.4000        17
  43.4500        26
  43.5000        26
  43.5500        25
  43.6000        18
  43.6500        20
  43.7000        28
  43.7500        26
  43.8000        26
  43.8500        35
  43.9000        30
  43.9500        29
  44.0000        32
  44.0500        37
  44.1000        42
  44.1500        58
  44.2000        83
  44.2500       107
  44.3000       162
  44.3500       299
  44.4000       438
  44.4500       759
  44.5000      1257
  44.5500      1726
  44.6000      1740
  44.6500      1581
  44.7000      1140
  44.7500       757
  44.8000       457
  44.8500       237
  44.9000       148
  44.9500       112
  45.0000        68
  45.0500        46
  45.1000        36
  45.1500        33
  45.2000        36
  45.2500        27
  45.3000        25
  45.3500        20
  45.4000        22
  45.4500        31
  45.5000        24
  45.5500        24
  45.6000        15
  45.6500        31
  45.7000        17
  45.7500        17
  45.8000         9
  45.8500        18
  45.9000        13
  45.9500        15
  46.0000        15
  46.0500        15
  46.1000        12
  46.1500        15
  46.2000        10
  46.2500        11
  46.3000        10
  46.3500        15
  46.4000         9
  46.4500        16
  46.5000        11
  46.5500        11
  46.6000         9
  46.6500        18
  46.7000         7
  46.7500        18
  46.8000        13
  46.8500        20
  46.9000        14
  46.9500        10
  47.0000         9
  47.0500        11
  47.1000        14
  47.1500        17
  47.2000        15
  47.2500         9
  47.3000        12
  47.3500        12
  47.4000        11
  47.4500        12
  47.5000        12
  47.5500        12
  47.6000        12
  47.6500        17
  47.7000         9
  47.7500        14
  47.8000         9
  47.8500        13
  47.9000        11
  47.9500        14
  48.0000        12
  48.0500        21
  48.1000        11
  48.1500        14
  48.2000        15
  48.2500         8
  48.3000         9
  48.3500        16
  48.4000        21
  48.4500         9
  48.5000        19
  48.5500        12
  48.6000         9
  48.6500        13
  48.7000        11
  48.7500        13
  48.8000        12
  48.8500        11
  48.9000         8
  48.9500         9
  49.0000        15
  49.0500        17
  49.1000        11
  49.1500        10
  49.2000        30
  49.2500        12
  49.3000        11
  49.3500        18
  49.4000        20
  49.4500        11
  49.5000         9
  49.5500        10
  49.6000         9
  49.6500         7
  49.7000        14
  49.7500        14
  49.8000        12
  49.8500         4
  49.9000        14
  49.9500        19
  50.0000        14
  50.0500        11
  50.1000        13
  50.1500        21
  50.2000        23
  50.2500         8
  50.3000        16
  50.3500        11
  50.4000        12
  50.4500        13
  50.5000        10
  50.5500        11
  50.6000        19
  50.6500        17
  50.7000        16
  50.7500        17
  50.8000        14
  50.8500        19
  50.9000        20
  50.9500        20
  51.0000        24
  51.0500        27
  51.1000        31
  51.1500        20
  51.2000        21
  51.2500        28
  51.3000        21
  51.3500        37
  51.4000        33
  51.4500        41
  51.5000        56
  51.5500        70
  51.6000        84
  51.6500       103
  51.7000       143
  51.7500       269
  51.8000       362
  51.8500       445
  51.9000       560
  51.9500       583
  52.0000       552
  52.0500       453
  52.1000       350
  52.1500       269
  52.2000       217
  52.2500       122
  52.3000        91
  52.3500        69
  52.4000        40
  52.4500        51
  52.5000        35
  52.5500        25
  52.6000        26
  52.6500        23
  52.7000        16
  52.7500        12
  52.8000        13
  52.8500        12
  52.9000        12
  52.9500        18
  53.0000        12
  53.0500        20
  53.1000        20
  53.1500        12
  53.2000        15
  53.2500         9
  53.3000        15
  53.3500        17
  53.4000         7
  53.4500        14
  53.5000         6
  53.5500        13
  53.6000         7
  53.6500        17
  53.7000        10
  53.7500        11
  53.8000         9
  53.8500        11
  53.9000        19
  53.9500        15
  54.0000        17
  54.0500        12
  54.1000        10
  54.1500        12
  54.2000        15
  54.2500         7
  54.3000        13
  54.3500        12
  54.4000        12
  54.4500        12
  54.5000        12
  54.5500         9
  54.6000        11
  54.6500        10
  54.7000        12
  54.7500        14
  54.8000         8
  54.8500        12
  54.9000         9
  54.9500        11
  55.0000         8
  55.0500        10
  55.1000        10
  55.1500         9
  55.2000         9
  55.2500        14
  55.3000        10
  55.3500        14
  55.4000        16
  55.4500        13
  55.5000        15
  55.5500        12
  55.6000        12
  55.6500        11
  55.7000        11
  55.7500         7
  55.8000        11
  55.8500        10
  55.9000         8
  55.9500         9
  56.0000        20
  56.0500         7
  56.1000         9
  56.1500        11
  56.2000         7
  56.2500         8
  56.3000        12
  56.3500         7
  56.4000        11
  56.4500        16
  56.5000        12
  56.5500        11
  56.6000        14
  56.6500         7
  56.7000         7
  56.7500        10
  56.8000         6
  56.8500        12
  56.9000        15
  56.9500         7
  57.0000         8
  57.0500        13
  57.1000        15
  57.1500        10
  57.2000        13
  57.2500        11
  57.3000         8
  57.3500        10
  57.4000         7
  57.4500        12
  57.5000        10
  57.5500         3
  57.6000        12
  57.6500         7
  57.7000         6
  57.7500        11
  57.8000        12
  57.8500        11
  57.9000        10
  57.9500         9
  58.0000        15
  58.0500        16
  58.1000         7
  58.1500        13
  58.2000        13
  58.2500        15
  58.3000         7
  58.3500         8
  58.4000         4
  58.4500         7
  58.5000        11
  58.5500         5
  58.6000        14
  58.6500         7
  58.7000        11
  58.7500         6
  58.8000        11
  58.8500        12
  58.9000         7
  58.9500        13
  59.0000        11
  59.0500        11
  59.1000        10
  59.1500        11
  59.2000        11
  59.2500         5
  59.3000         5
  59.3500        13
  59.4000        13
  59.4500        16
  59.5000        10
  59.5500        12
  59.6000         7
  59.6500         9
  59.7000         9
  59.7500         8
  59.8000        11
  59.8500         6
  59.9000         6
  59.9500        10
  60.0000        12
  60.0500         8
  60.1000         7
  60.1500         7
  60.2000        10
  60.2500        13
  60.3000        10
  60.3500        13
  60.4000         8
  60.4500        14
  60.5000         7
  60.5500         7
  60.6000        11
  60.6500        12
  60.7000         7
  60.7500         2
  60.8000         7
  60.8500        12
  60.9000        13
  60.9500        10
  61.0000        14
  61.0500        15
  61.1000         7
  61.1500        13
  61.2000         9
  61.2500         9
  61.3000        11
  61.3500         8
  61.4000        10
  61.4500         8
  61.5000        10
  61.5500        15
  61.6000         7
  61.6500         9
  61.7000         6
  61.7500        12
  61.8000         9
  61.8500         5
  61.9000        10
  61.9500         6
  62.0000        11
  62.0500        12
  62.1000         9
  62.1500         8
  62.2000        10
  62.2500         6
  62.3000         9
  62.3500         8
  62.4000        12
  62.4500         9
  62.5000        14
  62.5500         7
  62.6000        11
  62.6500         8
  62.7000         7
  62.7500         4
  62.8000         8
  62.8500        10
  62.9000         5
  62.9500        13
  63.0000         8
  63.0500        10
  63.1000         7
  63.1500         8
  63.2000         6
  63.2500         6
  63.3000        11
  63.3500         7
  63.4000         9
  63.4500         9
  63.5000         6
  63.5500         8
  63.6000        14
  63.6500         7
  63.7000        12
  63.7500        13
  63.8000         7
  63.8500        10
  63.9000        13
  63.9500        12
  64.0000        11
  64.0500         9
  64.1000        12
  64.1500         7
  64.2000        10
  64.2500         8
  64.3000         8
  64.3500        12
  64.4000         7
  64.4500        11
  64.5000         5
  64.5500         3
  64.6000         9
  64.6500         5
  64.7000        10
  64.7500        16
  64.8000         5
  64.8500        11
  64.9000        11
  64.9500        12
  65.0000         7
  65.0500        14
  65.1000         8
  65.1500        13
  65.2000         9
  65.2500        12
  65.3000         7
  65.3500        12
  65.4000        11
  65.4500        11
  65.5000        13
  65.5500        11
  65.6000        11
  65.6500         8
  65.7000         7
  65.7500        12
  65.8000        12
  65.8500        18
  65.9000        11
  65.9500         9
  66.0000         7
  66.0500        15
  66.1000        11
  66.1500        12
  66.2000        14
  66.2500         8
  66.3000         8
  66.3500         9
  66.4000        11
  66.4500        13
  66.5000         9
  66.5500         7
  66.6000        11
  66.6500         8
  66.7000        14
  66.7500         8
  66.8000        11
  66.8500         7
  66.9000        11
  66.9500         6
  67.0000        12
  67.0500         8
  67.1000        13
  67.1500        11
  67.2000        12
  67.2500         9
  67.3000        17
  67.3500         7
  67.4000        13
  67.4500         7
  67.5000         6
  67.5500         9
  67.6000         7
  67.6500        21
  67.7000         4
  67.7500        10
  67.8000        15
  67.8500        11
  67.9000        13
  67.9500        11
  68.0000         8
  68.0500         6
  68.1000        14
  68.1500         8
  68.2000        10
  68.2500        17
  68.3000        12
  68.3500        11
  68.4000        12
  68.4500         9
  68.5000         8
  68.5500        12
  68.6000        10
  68.6500        15
  68.7000        10
  68.7500        13
  68.8000        14
  68.8500        10
  68.9000         6
  68.9500         8
  69.0000         9
  69.0500        14
  69.1000        10
  69.1500        13
  69.2000         9
  69.2500         6
  69.3000         4
  69.3500        14
  69.4000        12
  69.4500         8
  69.5000        15
  69.5500        10
  69.6000        12
  69.6500        12
  69.7000         4
  69.7500        10
  69.8000         8
  69.8500         5
  69.9000        10
  69.9500         9
  70.0000        12
  70.0500         8
  70.1000        13
  70.1500         6
  70.2000        12
  70.2500         4
  70.3000        11
  70.3500        10
  70.4000        11
  70.4500        11
  70.5000         8
  70.5500        10
  70.6000        12
  70.6500         8
  70.7000        10
  70.7500         8
  70.8000         5
  70.8500        18
  70.9000         9
  70.9500        10
  71.0000         7
  71.0500        13
  71.1000         9
  71.1500         8
  71.2000         6
  71.2500         9
  71.3000        12
  71.3500         9
  71.4000        16
  71.4500        14
  71.5000        11
  71.5500        14
  71.6000         3
  71.6500        18
  71.7000        18
  71.7500        11
  71.8000        12
  71.8500        12
  71.9000         8
  71.9500        14
  72.0000         9
  72.0500         8
  72.1000         9
  72.1500        10
  72.2000         8
  72.2500        17
  72.3000        18
  72.3500         7
  72.4000         5
  72.4500         7
  72.5000        11
  72.5500        11
  72.6000         9
  72.6500         9
  72.7000        10
  72.7500         9
  72.8000        12
  72.8500         7
  72.9000         7
  72.9500         8
  73.0000        11
  73.0500         9
  73.1000        12
  73.1500        17
  73.2000        10
  73.2500         6
  73.3000        23
  73.3500        10
  73.4000         6
  73.4500        11
  73.5000         6
  73.5500        14
  73.6000         8
  73.6500        13
  73.7000        11
  73.7500        11
  73.8000        17
  73.8500        15
  73.9000        11
  73.9500        15
  74.0000        10
  74.0500        12
  74.1000        16
  74.1500        20
  74.2000         9
  74.2500        16
  74.3000        17
  74.3500        14
  74.4000        12
  74.4500        13
  74.5000         8
  74.5500        11
  74.6000        10
  74.6500        11
  74.7000        13
  74.7500        11
  74.8000        12
  74.8500        13
  74.9000        11
  74.9500         9
  75.0000        13
  75.0500        12
  75.1000        10
  75.1500        11
  75.2000        13
  75.2500         8
  75.3000        17
  75.3500        16
  75.4000        11
  75.4500         8
  75.5000        12
  75.5500        19
  75.6000        11
  75.6500        17
  75.7000        16
  75.7500        11
  75.8000        17
  75.8500        24
  75.9000        23
  75.9500        25
  76.0000        35
  76.0500        46
  76.1000        50
  76.1500        47
  76.2000        72
  76.2500        97
  76.3000       144
  76.3500       166
  76.4000       211
  76.4500       221
  76.5000       222
  76.5500       199
  76.6000       190
  76.6500       186
  76.7000       140
  76.7500       118
  76.8000        85
  76.8500        69
  76.9000        52
  76.9500        41
  77.0000        35
  77.0500        22
  77.1000        23
  77.1500        19
  77.2000        16
  77.2500        19
  77.3000        23
  77.3500        14
  77.4000        11
  77.4500        18
  77.5000        22
  77.5500         9
  77.6000        12
  77.6500        10
  77.7000        11
  77.7500        14
  77.8000        14
  77.8500        16
  77.9000        15
  77.9500        14
  78.0000        12
  78.0500        19
  78.1000         8
  78.1500        16
  78.2000        20
  78.2500         7
  78.3000        14
  78.3500         9
  78.4000        15
  78.4500        14
  78.5000        11
  78.5500         9
  78.6000         6
  78.6500        11
  78.7000        10
  78.7500        20
  78.8000         5
  78.8500        10
  78.9000        13
  78.9500         7
  79.0000        12
  79.0500        10
  79.1000        11
  79.1500        16
  79.2000        13
  79.2500        17
  79.3000        13
  79.3500        11
  79.4000         9
  79.4500         9
  79.5000        14
  79.5500        13
  79.6000        12
  79.6500        10
  79.7000         6
  79.7500        19
  79.8000        10
  79.8500        12
  79.9000        13
  79.9500        11
  80.0000        18
  80.0500         5
  80.1000         8
  80.1500         7
  80.2000        18
  80.2500        11
  80.3000         9
  80.3500        12
  80.4000        14
  80.4500        14
  80.5000        12
  80.5500        11
  80.6000         6
  80.6500        13
  80.7000         8
  80.7500        16
  80.8000        10
  80.8500         8
  80.9000         7
  80.9500         9
  81.0000         6
  81.0500         5
  81.1000        11
  81.1500         9
  81.2000         9
  81.2500        14
  81.3000         9
  81.3500         7
  81.4000         9
  81.4500        16
  81.5000        11
  81.5500         6
  81.6000         8
  81.6500        11
  81.7000         9
  81.7500        11
  81.8000        13
  81.8500         9
  81.9000         5
  81.9500        10
  82.0000        12
  82.0500        15
  82.1000        10
  82.1500         6
  82.2000        18
  82.2500        13
  82.3000        12
  82.3500         9
  82.4000        10
  82.4500         9
  82.5000         8
  82.5500         9
  82.6000        13
  82.6500         8
  82.7000        11
  82.7500        11
  82.8000        11
  82.8500        10
  82.9000         8
  82.9500         8
  83.0000        10
  83.0500        15
  83.1000        12
  83.1500        11
  83.2000        15
  83.2500         7
  83.3000        12
  83.3500        10
  83.4000        13
  83.4500         8
  83.5000        19
  83.5500        15
  83.6000         7
  83.6500         7
  83.7000        17
  83.7500        17
  83.8000         9
  83.8500        11
  83.9000        11
  83.9500        12
  84.0000        10
  84.0500        14
  84.1000         8
  84.1500        19
  84.2000        11
  84.2500        10
  84.3000         9
  84.3500         7
  84.4000         7
  84.4500         9
  84.5000         7
  84.5500        10
  84.6000         6
  84.6500        11
  84.7000         9
  84.7500         9
  84.8000        12
  84.8500         5
  84.9000        10
  84.9500         9
  85.0000        11
  85.0500        10
  85.1000         9
  85.1500         9
  85.2000         9
  85.2500        15
  85.3000         5
  85.3500        11
  85.4000         9
  85.4500        17
  85.5000         5
  85.5500        14
  85.6000        11
  85.6500        15
  85.7000        13
  85.7500        11
  85.8000         9
  85.8500         9
  85.9000         8
  85.9500         7
  86.0000         8
  86.0500        11
  86.1000        16
  86.1500         8
  86.2000        13
  86.2500        11
  86.3000         9
  86.3500        16
  86.4000         7
  86.4500        12
  86.5000        17
  86.5500        12
  86.6000         9
  86.6500        11
  86.7000         9
  86.7500        11
  86.8000         9
  86.8500         7
  86.9000        11
  86.9500         7
  87.0000        13
  87.0500        11
  87.1000         7
  87.1500         9
  87.2000         7
  87.2500        10
  87.3000        13
  87.3500        16
  87.4000        12
  87.4500        10
  87.5000        10
  87.5500         9
  87.6000         9
  87.6500         9
  87.7000         9
  87.7500         6
  87.8000        11
  87.8500        13
  87.9000         9
  87.9500         8
  88.0000        11
  88.0500        13
  88.1000        11
  88.1500         8
  88.2000         4
  88.2500        15
  88.3000        14
  88.3500        14
  88.4000        10
  88.4500        10
  88.5000        11
  88.5500         9
  88.6000        16
  88.6500         8
  88.7000        11
  88.7500        17
  88.8000         8
  88.8500        12
  88.9000         6
  88.9500         9
  89.0000        10
  89.0500        13
  89.1000        14
  89.1500        15
  89.2000        15
  89.2500         9
  89.3000         9
  89.3500        13
  89.4000        14
  89.4500        11
  89.5000         8
  89.5500        13
  89.6000         7
  89.6500        13
  89.7000        16
  89.7500        11
  89.8000        17
  89.8500        11
  89.9000        13
  89.9500        11
  90.0000         9
  90.0500        14
  90.1000         9
  90.1500        11
  90.2000        18
  90.2500        17
  90.3000        12
  90.3500        11
  90.4000        11
  90.4500        14
  90.5000         6
  90.5500         6
  90.6000        12
  90.6500        15
  90.7000        13
  90.7500        14
  90.8000         8
  90.8500        11
  90.9000         6
  90.9500        15
  91.0000        16
  91.0500        12
  91.1000        12
  91.1500        17
  91.2000        14
  91.2500        12
  91.3000         9
  91.3500        17
  91.4000        14
  91.4500        10
  91.5000         7
  91.5500        18
  91.6000        16
  91.6500        13
  91.7000        13
  91.7500        12
  91.8000         9
  91.8500        13
  91.9000        14
  91.9500        18
  92.0000        22
  92.0500        17
  92.1000        22
  92.1500        23
  92.2000        15
  92.2500        21
  92.3000        32
  92.3500        29
  92.4000        25
  92.4500        38
  92.5000        49
  92.5500        42
  92.6000        49
  92.6500        63
  92.7000        71
  92.7500        97
  92.8000       117
  92.8500       132
  92.9000       145
  92.9500       159
  93.0000       185
  93.0500       184
  93.1000       169
  93.1500       145
  93.2000       141
  93.2500       140
  93.3000       153
  93.3500       130
  93.4000        94
  93.4500        88
  93.5000        53
  93.5500        49
  93.6000        48
  93.6500        35
  93.7000        31
  93.7500        30
  93.8000        21
  93.8500        22
  93.9000        17
  93.9500        22
  94.0000        23
  94.0500        23
  94.1000        23
  94.1500        18
  94.2000        16
  94.2500        23
  94.3000        12
  94.3500        14
  94.4000        16
  94.4500        13
  94.5000         9
  94.5500        18
  94.6000         8
  94.6500        16
  94.7000        14
  94.7500         7
  94.8000         9
  94.8500        15
  94.9000        19
  94.9500         9
  95.0000        11
  95.0500        13
  95.1000         7
  95.1500        13
  95.2000        17
  95.2500        11
  95.3000        12
  95.3500         6
  95.4000        12
  95.4500        15
  95.5000        14
  95.5500        14
  95.6000        16
  95.6500         8
  95.7000        10
  95.7500         8
  95.8000        10
  95.8500         7
  95.9000        11
  95.9500        12
  96.0000        10
  96.0500        10
  96.1000        15
  96.1500         7
  96.2000        16
  96.2500         6
  96.3000        13
  96.3500        12
  96.4000         9
  96.4500        19
  96.5000         8
  96.5500        20
  96.6000         4
  96.6500        16
  96.7000        16
  96.7500        10
  96.8000        10
  96.8500        15
  96.9000        15
  96.9500        11
  97.0000        15
  97.0500        16
  97.1000        13
  97.1500         8
  97.2000        20
  97.2500        12
  97.3000         9
  97.3500        11
  97.4000        15
  97.4500        11
  97.5000         9
  97.5500        10
  97.6000        14
  97.6500        11
  97.7000        11
  97.7500         9
  97.8000        20
  97.8500        19
  97.9000        14
  97.9500        23
  98.0000        18
  98.0500        22
  98.1000        18
  98.1500        29
  98.2000        25
  98.2500        27
  98.3000        37
  98.3500        59
  98.4000        54
  98.4500        55
  98.5000        64
  98.5500        73
  98.6000        73
  98.6500        60
  98.7000        55
  98.7500        54
  98.8000        48
  98.8500        38
  98.9000        34
  98.9500        30
  99.0000        26
  99.0500        33
  99.1000        29
  99.1500        14
  99.2000        17
  99.2500        19
  99.3000         9
  99.3500         7
  99.4000        13
  99.4500        14
  99.5000         9
  99.5500        15
  99.6000         8
  99.6500        18
  99.7000        10
  99.7500        16
  99.8000        14
  99.8500        14
  99.9000        17
  99.9500        12
 100.0000        11
 100.0500        10
 100.1000        12
 100.1500        12
 100.2000         7
 100.2500         5
 100.3000        13
 100.3500         9
 100.4000        13
 100.4500        11
 100.5000         6
 100.5500        13
 100.6000         7
 100.6500        13
 100.7000         8
 100.7500        16
 100.8000        10
 100.8500        10
 100.9000         9
 100.9500        18
 101.0000        11
 101.0500         9
 101.1000        15
 101.1500        10
 101.2000        10
 101.2500        15
 101.3000         5
 101.3500        13
 101.4000        10
 101.4500         9
 101.5000        12
 101.5500         9
 101.6000        19
 101.6500         7
 101.7000        16
 101.7500        10
 101.8000        15
 101.8500        13
 101.9000        10
 101.9500        16
 102.0000        14
 102.0500        10
 102.1000         5
 102.1500         9
 102.2000        10
 102.2500         8
 102.3000        12
 102.3500        11
 102.4000        11
 102.4500        12
 102.5000         5
 102.5500        10
 102.6000         6
 102.6500         9
 102.7000         8
 102.7500        13
 102.8000         8
 102.8500         4
 102.9000         8
 102.9500         5
 103.0000         9
 103.0500         8
 103.1000        10
 103.1500         7
 103.2000         9
 103.2500         4
 103.3000        10
 103.3500         9
 103.4000        14
 103.4500        10
 103.5000         9
 103.5500        11
 103.6000        12
 103.6500         6
 103.7000        10
 103.7500        12
 103.8000         5
 103.8500         9
 103.9000         8
 103.9500         9
 104.0000        13
 104.0500         3
 104.1000         5
 104.1500         9
 104.2000        14
 104.2500        16
 104.3000        11
 104.3500         5
 104.4000        14
 104.4500         7
 104.5000        15
 104.5500         7
 104.6000         5
 104.6500        14
 104.7000         6
 104.7500        10
 104.8000        15
 104.8500         8
 104.9000        16
 104.9500        14
 105.0000        12
 105.0500        16
 105.1000        17
 105.1500        12
 105.2000         7
 105.2500        10
 105.3000         8
 105.3500         8
 105.4000        11
 105.4500         9
 105.5000        10
 105.5500        10
 105.6000         7
 105.6500        13
 105.7000         5
 105.7500        13
 105.8000        12
 105.8500         6
 105.9000         9
 105.9500         8
 106.0000        10
 106.0500        10
 106.1000        12
 106.1500        10
 106.2000        11
 106.2500         6
 106.3000         7
 106.3500        11
 106.4000         6
 106.4500        11
 106.5000        10
 106.5500        11
 106.6000        18
 106.6500         3
 106.7000         7
 106.7500         7
 106.8000         9
 106.8500        12
 106.9000         9
 106.9500        11
 107.0000         6
 107.0500         9
 107.1000        13
 107.1500        12
 107.2000         9
 107.2500        10
 107.3000        13
 107.3500        12
 107.4000        11
 107.4500         9
 107.5000         8
 107.5500         8
 107.6000        10
 107.6500         8
 107.7000        11
 107.7500        11
 107.8000         6
 107.8500         3
 107.9000        11
 107.9500        10
 108.0000        11
 108.0500         9
 108.1000        11
 108.1500        11
 108.2000        10
 108.2500        10
 108.3000        10
 108.3500        17
 108.4000        11
 108.4500         8
 108.5000        12
 108.5500        10
 108.6000         7
 108.6500        13
 108.7000        15
 108.7500        11
 108.8000         9
 108.8500        11
 108.9000         4
 108.9500        10
 109.0000        17
 109.0500        13
 109.1000         9
 109.1500        14
 109.2000        10
 109.2500         7
 109.3000        16
 109.3500         8
 109.4000        10
 109.4500        11
 109.5000         7
 109.5500        15
 109.6000         9
 109.6500        13
 109.7000         4
 109.7500         9
 109.8000         7
 109.8500        12
 109.9000        11
 109.9500         9
 110.0000         9
