  10.0000         4
  10.0500         6
  10.1000         6
  10.1500         6
  10.2000         7
  10.2500         7
  10.3000         9
  10.3500        10
  10.4000         4
  10.4500         6
  10.5000         6
  10.5500         7
  10.6000         6
  10.6500         6
  10.7000         7
  10.7500         7
  10.8000         7
  10.8500         8
  10.9000        10
  10.9500         5
  11.0000         4
  11.0500         5
  11.1000         5
  11.1500         6
  11.2000         9
  11.2500         5
  11.3000         6
  11.3500         3
  11.4000         6
  11.4500         5
  11.5000         9
  11.5500         6
  11.6000         6
  11.6500         3
  11.7000         5
  11.7500         6
  11.8000         4
  11.8500         7
  11.9000         4
  11.9500        11
  12.0000         2
  12.0500         7
  12.1000         1
  12.1500         6
  12.2000         8
  12.2500         4
  12.3000         2
  12.3500         3
  12.4000         6
  12.4500         5
  12.5000         2
  12.5500         3
  12.6000         4
  12.6500         5
  12.7000         5
  12.7500         6
  12.8000         7
  12.8500         5
  12.9000         7
  12.9500         8
  13.0000         5
  13.0500         5
  13.1000         9
  13.1500         8
  13.2000         7
  13.2500         4
  13.3000         7
  13.3500         7
  13.4000         4
  13.4500         6
  13.5000        10
  13.5500         3
  13.6000         9
  13.6500         4
  13.7000         3
  13.7500         3
  13.8000         4
  13.8500         6
  13.9000         6
  13.9500         7
  14.0000         3
  14.0500         3
  14.1000         9
  14.1500         6
  14.2000         7
  14.2500        10
  14.3000         4
  14.3500         5
  14.4000         6
  14.4500         5
  14.5000         4
  14.5500         3
  14.6000         5
  14.6500         5
  14.7000         3
  14.7500         4
  14.8000         8
  14.8500         7
  14.9000         8
  14.9500         4
  15.0000         3
  15.0500         3
  15.1000        13
  15.1500         8
  15.2000         4
  15.2500         5
  15.3000         9
  15.3500         7
  15.4000         5
  15.4500         4
  15.5000         8
  15.5500         7
  15.6000         4
  15.6500         5
  15.7000         4
  15.7500         5
  15.8000         7
  15.8500         6
  15.9000         8
  15.9500         3
  16.0000         5
  16.0500         5
  16.1000         3
  16.1500         3
  16.2000         5
  16.2500         5
  16.3000         1
  16.3500         5
  16.4000         2
  16.4500         7
  16.5000         9
  16.5500         4
  16.6000         3
  16.6500         3
  16.7000         2
  16.7500         7
  16.8000         4
  16.8500         7
  16.9000         2
  16.9500         4
  17.0000         4
  17.0500         5
  17.1000         6
  17.1500         3
  17.2000         9
  17.2500         7
  17.3000         5
  17.3500         7
  17.4000         2
  17.4500         2
  17.5000         6
  17.5500         8
  17.6000         4
  17.6500         7
  17.7000         7
  17.7500         2
  17.8000         3
  17.8500         2
  17.9000         3
  17.9500         3
  18.0000         4
  18.0500         7
  18.1000         4
  18.1500         5
  18.2000         6
  18.2500         6
  18.3000         5
  18.3500         3
  18.4000         6
  18.4500         3
  18.5000         3
  18.5500         5
  18.6000         6
  18.6500         5
  18.7000         4
  18.7500         3
  18.8000         3
  18.8500         1
  18.9000         4
  18.9500         6
  19.0000         4
  19.0500         5
  19.1000         3
  19.1500         4
  19.2000         4
  19.2500         3
  19.3000         4
  19.3500         6
  19.4000        12
  19.4500         6
  19.5000         5
  19.5500         4
  19.6000         3
  19.6500         2
  19.7000         8
  19.7500         1
  19.8000         5
  19.8500         4
  19.9000         7
  19.9500         3
  20.0000         0
  20.0500         6
  20.1000         5
  20.1500         3
  20.2000         5
  20.2500         2
  20.3000         2
  20.3500         5
  20.4000         5
  20.4500         5
  20.5000         7
  20.5500         2
  20.6000         6
  20.6500         5
  20.7000         5
  20.7500         8
  20.8000         6
  20.8500         3
  20.9000         2
  20.9500         6
  21.0000         3
  21.0500         3
  21.1000         5
  21.1500         5
  21.2000         6
  21.2500         6
  21.3000         5
  21.3500         3
  21.4000         3
  21.4500         6
  21.5000         4
  21.5500         6
  21.6000         3
  21.6500         9
  21.7000         4
  21.7500         1
  21.8000         5
  21.8500         1
  21.9000         8
  21.9500         5
  22.0000         1
  22.0500         2
  22.1000         5
  22.1500         4
  22.2000         5
  22.2500         4
  22.3000         6
  22.3500         4
  22.4000         5
  22.4500         3
  22.5000         6
  22.5500         4
  22.6000         8
  22.6500         3
  22.7000        10
  22.7500         3
  22.8000         4
  22.8500         5
  22.9000         6
  22.9500         5
  23.0000         4
  23.0500         4
  23.1000         7
  23.1500         0
  23.2000         3
  23.2500         3
  23.3000         3
  23.3500         5
  23.4000         3
  23.4500         5
  23.5000         4
  23.5500         5
  23.6000         3
  23.6500         5
  23.7000         7
  23.7500         5
  23.8000         5
  23.8500         4
  23.9000         3
  23.9500         2
  24.0000         2
  24.0500         4
  24.1000         2
  24.1500         5
  24.2000         4
  24.2500         5
  24.3000         2
  24.3500         3
  24.4000         6
  24.4500         5
  24.5000         4
  24.5500         2
  24.6000         3
  24.6500         9
  24.7000         1
  24.7500         2
  24.8000         5
  24.8500         4
  24.9000         5
  24.9500         5
  25.0000         5
  25.0500         1
  25.1000         5
  25.1500         3
  25.2000         4
  25.2500         3
  25.3000         3
  25.3500         1
  25.4000         3
  25.4500         7
  25.5000         8
  25.5500         3
  25.6000         3
  25.6500         2
  25.7000         4
  25.7500         7
  25.8000         7
  25.8500         5
  25.9000         5
  25.9500         6
  26.0000         9
  26.0500         5
  26.1000         1
  26.1500         3
  26.2000         5
  26.2500         2
  26.3000         6
  26.3500         5
  26.4000         2
  26.4500         3
  26.5000         6
  26.5500         6
  26.6000         4
  26.6500         4
  26.7000         3
  26.7500         4
  26.8000         2
  26.8500         1
  26.9000         7
  26.9500         2
  27.0000         3
  27.0500         4
  27.1000         5
  27.1500         2
  27.2000         2
  27.2500         6
  27.3000         2
  27.3500         2
  27.4000         1
  27.4500         3
  27.5000         6
  27.5500         3
  27.6000         4
  27.6500         4
  27.7000         6
  27.7500         7
  27.8000         3
  27.8500         6
  27.9000         7
  27.9500         2
  28.0000         3
  28.0500         1
  28.1000         3
  28.1500         3
  28.2000         5
  28.2500         2
  28.3000         3
  28.3500         6
  28.4000         2
  28.4500         2
  28.5000         4
  28.5500         5
  28.6000         3
  28.6500         9
  28.7000         5
  28.7500         3
  28.8000         5
  28.8500         9
  28.9000         6
  28.9500         2
  29.0000         5
  29.0500         3
  29.1000         6
  29.1500         3
  29.2000         2
  29.2500         4
  29.3000         5
  29.3500         4
  29.4000         8
  29.4500         6
  29.5000         4
  29.5500         3
  29.6000         7
  29.6500         7
  29.7000         5
  29.7500         4
  29.8000         3
  29.8500         3
  29.9000         2
  29.9500         8
  30.0000         6
  30.0500         3
  30.1000         8
  30.1500         4
  30.2000         6
  30.2500         6
  30.3000         7
  30.3500         4
  30.4000         3
  30.4500         2
  30.5000         2
  30.5500         3
  30.6000         3
  30.6500         2
  30.7000         5
  30.7500         1
  30.8000         6
  30.8500         4
  30.9000         2
  30.9500         8
  31.0000         5
  31.0500         2
  31.1000         4
  31.1500         2
  31.2000         2
  31.2500         7
  31.3000         5
  31.3500         1
  31.4000         4
  31.4500         2
  31.5000         4
  31.5500         5
  31.6000         3
  31.6500         3
  31.7000         3
  31.7500         3
  31.8000         2
  31.8500         3
  31.9000         7
  31.9500         3
  32.0000         1
  32.0500         4
  32.1000         5
  32.1500         3
  32.2000         3
  32.2500         4
  32.3000         9
  32.3500         1
  32.4000         8
  32.4500         1
  32.5000         8
  32.5500         5
  32.6000         5
  32.6500         6
  32.7000         1
  32.7500         5
  32.8000         1
  32.8500         6
  32.9000         9
  32.9500         3
  33.0000         6
  33.0500         9
  33.1000         6
  33.1500         7
  33.2000         5
  33.2500         8
  33.3000         5
  33.3500         6
  33.4000         4
  33.4500         3
  33.5000         8
  33.5500         3
  33.6000         3
  33.6500         5
  33.7000         3
  33.7500         6
  33.8000         6
  33.8500         1
  33.9000         2
  33.9500         7
  34.0000         6
  34.0500         4
  34.1000         2
  34.1500         4
  34.2000         3
  34.2500         3
  34.3000         5
  34.3500         7
  34.4000         1
  34.4500         4
  34.5000         8
  34.5500         4
  34.6000         2
  34.6500         6
  34.7000         7
  34.7500         9
  34.8000         9
  34.8500         6
  34.9000         2
  34.9500         7
  35.0000        11
  35.0500         9
  35.1000         4
  35.1500         5
  35.2000         6
  35.2500        12
  35.3000        11
  35.3500         5
  35.4000        12
  35.4500         8
  35.5000        11
  35.5500        10
  35.6000         7
  35.6500         8
  35.7000        18
  35.7500        10
  35.8000        10
  35.8500        10
  35.9000         9
  35.9500         8
  36.0000         8
  36.0500         4
  36.1000        10
  36.1500        12
  36.2000        12
  36.2500        14
  36.3000        10
  36.3500        13
  36.4000        16
  36.4500        16
  36.5000        11
  36.5500        17
  36.6000         6
  36.6500         9
  36.7000         8
  36.7500        10
  36.8000        11
  36.8500         9
  36.9000         5
  36.9500         7
  37.0000         6
  37.0500        10
  37.1000         4
  37.1500         3
  37.2000        10
  37.2500         4
  37.3000         9
  37.3500         4
  37.4000         5
  37.4500         5
  37.5000         4
  37.5500         7
  37.6000         8
  37.6500        11
  37.7000         4
  37.7500         6
  37.8000         6
  37.8500         9
  37.9000         4
  37.9500         8
  38.0000         8
  38.0500         5
  38.1000         5
  38.1500         5
  38.2000        15
  38.2500         5
  38.3000         8
  38.3500         9
  38.4000         9
  38.4500         9
  38.5000        14
  38.5500         9
  38.6000        13
  38.6500         9
  38.7000        10
  38.7500        10
  38.8000         3
  38.8500        11
  38.9000        12
  38.9500         7
  39.0000         8
  39.0500        11
  39.1000         5
  39.1500         7
  39.2000         8
  39.2500         6
  39.3000         8
  39.3500         8
  39.4000         9
  39.4500         6
  39.5000         6
  39.5500         9
  39.6000         9
  39.6500         8
  39.7000         5
  39.7500         7
  39.8000         5
  39.8500         3
  39.9000         3
  39.9500         6
  40.0000        10
  40.0500         4
  40.1000         6
  40.1500         4
  40.2000         7
  40.2500         4
  40.3000         5
  40.3500        10
  40.4000         7
  40.4500        11
  40.5000         5
  40.5500         6
  40.6000         5
  40.6500         8
  40.7000         8
  40.7500         6
  40.8000         6
  40.8500         8
  40.9000         8
  40.9500         9
  41.0000         9
  41.0500         5
  41.1000        11
  41.1500        12
  41.2000         5
  41.2500         6
  41.3000        10
  41.3500        10
  41.4000        11
  41.4500        12
  41.5000         5
  41.5500         5
  41.6000        10
  41.6500        10
  41.7000         6
  41.7500        11
  41.8000        12
  41.8500        12
  41.9000        15
  41.9500         8
  42.0000        15
  42.0500        12
  42.1000        18
  42.1500        11
  42.2000        29
  42.2500        19
  42.3000        17
  42.3500        15
  42.4000        21
  42.4500         8
  42.5000        20
  42.5500        23
  42.6000        18
  42.6500        20
  42.7000        33
  42.7500        34
  42.8000        32
  42.8500        39
  42.9000        35
  42.9500        51
  43.0000        90
  43.0500        92
  43.1000       129
  43.1500       226
  43.2000       321
  43.2500       552
  43.3000       951
  43.3500      1474
  43.4000      1605
  43.4500      1636
  43.5000      1383
  43.5500       913
  43.6000       597
  43.6500       358
  43.7000       234
  43.7500       129
  43.8000        88
  43.8500        74
  43.9000        56
  43.9500        32
  44.0000        32
  44.0500        37
  44.1000        21
  44.1500        15
  44.2000        18
  44.2500        22
  44.3000        28
  44.3500        18
  44.4000        16
  44.4500        13
  44.5000         9
  44.5500        22
  44.6000        10
  44.6500        10
  44.7000        15
  44.7500         8
  44.8000        16
  44.8500        10
  44.9000         7
  44.9500         8
  45.0000         5
  45.0500         6
  45.1000        10
  45.1500        12
  45.2000         8
  45.2500         9
  45.3000        12
  45.3500         4
  45.4000         7
  45.4500         6
  45.5000         7
  45.5500         5
  45.6000        10
  45.6500         8
  45.7000         7
  45.7500         4
  45.8000         7
  45.8500        10
  45.9000         6
  45.9500         9
  46.0000         4
  46.0500         5
  46.1000         9
  46.1500         5
  46.2000        10
  46.2500         5
  46.3000         6
  46.3500         6
  46.4000         6
  46.4500         5
  46.5000         8
  46.5500         4
  46.6000         9
  46.6500        11
  46.7000        10
  46.7500        10
  46.8000         6
  46.8500         6
  46.9000         9
  46.9500         3
  47.0000         7
  47.0500        10
  47.1000         7
  47.1500        11
  47.2000        10
  47.2500         3
  47.3000         5
  47.3500         4
  47.4000         4
  47.4500         5
  47.5000        12
  47.5500         4
  47.6000        11
  47.6500         8
  47.7000         6
  47.7500         8
  47.8000         9
  47.8500         5
  47.9000         6
  47.9500         6
  48.0000         5
  48.0500        11
  48.1000        10
  48.1500         7
  48.2000         5
  48.2500         5
  48.3000         5
  48.3500         5
  48.4000        12
  48.4500         5
  48.5000         9
  48.5500         7
  48.6000         8
  48.6500         5
  48.7000        10
  48.7500        11
  48.8000         7
  48.8500         8
  48.9000         5
  48.9500        17
  49.0000        17
  49.0500        11
  49.1000         7
  49.1500        18
  49.2000         7
  49.2500        12
  49.3000        17
  49.3500         8
  49.4000        14
  49.4500        13
  49.5000        10
  49.5500         9
  49.6000        16
  49.6500        21
  49.7000        17
  49.7500        22
  49.8000        24
  49.8500        22
  49.9000        28
  49.9500        33
  50.0000        34
  50.0500        49
  50.1000        77
  50.1500        79
  50.2000        99
  50.2500       136
  50.3000       215
  50.3500       267
  50.4000       364
  50.4500       492
  50.5000       474
  50.5500       554
  50.6000       477
  50.6500       453
  50.7000       341
  50.7500       291
  50.8000       173
  50.8500       140
  50.9000       101
  50.9500        59
  51.0000        62
  51.0500        58
  51.1000        33
  51.1500        29
  51.2000        26
  51.2500        23
  51.3000        18
  51.3500        15
  51.4000        15
  51.4500        22
  51.5000        15
  51.5500        16
  51.6000        13
  51.6500        11
  51.7000        10
  51.7500        11
  51.8000        10
  51.8500         2
  51.9000         6
  51.9500         9
  52.0000         7
  52.0500         7
  52.1000         8
  52.1500         7
  52.2000         8
  52.2500         9
  52.3000         8
  52.3500         5
  52.4000        11
  52.4500        10
  52.5000        10
  52.5500         7
  52.6000         9
  52.6500         9
  52.7000         4
  52.7500         8
  52.8000         5
  52.8500         7
  52.9000        10
  52.9500         6
  53.0000         7
  53.0500         7
  53.1000         5
  53.1500        10
  53.2000         5
  53.2500         7
  53.3000         7
  53.3500         9
  53.4000         7
  53.4500         8
  53.5000         5
  53.5500         5
  53.6000         6
  53.6500         5
  53.7000         9
  53.7500         9
  53.8000         3
  53.8500         4
  53.9000         1
  53.9500         5
  54.0000         5
  54.0500         6
  54.1000         5
  54.1500         3
  54.2000         5
  54.2500         4
  54.3000         7
  54.3500         3
  54.4000         4
  54.4500         1
  54.5000         7
  54.5500         6
  54.6000         6
  54.6500         4
  54.7000         6
  54.7500         1
  54.8000         8
  54.8500         5
  54.9000         4
  54.9500         2
  55.0000        11
  55.0500         3
  55.1000         5
  55.1500         8
  55.2000         2
  55.2500         3
  55.3000         3
  55.3500         5
  55.4000         4
  55.4500         4
  55.5000         3
  55.5500         4
  55.6000         3
  55.6500         2
  55.7000         4
  55.7500         4
  55.8000         4
  55.8500         9
  55.9000         4
  55.9500         4
  56.0000         1
  56.0500         7
  56.1000         4
  56.1500         4
  56.2000         5
  56.2500         6
  56.3000         6
  56.3500         6
  56.4000         4
  56.4500         4
  56.5000         3
  56.5500         3
  56.6000         4
  56.6500         7
  56.7000         3
  56.7500         4
  56.8000         0
  56.8500         6
  56.9000         6
  56.9500         1
  57.0000         3
  57.0500         6
  57.1000         4
  57.1500         5
  57.2000         6
  57.2500         3
  57.3000         4
  57.3500         7
  57.4000         7
  57.4500         2
  57.5000        10
  57.5500         6
  57.6000         4
  57.6500         6
  57.7000         2
  57.7500         7
  57.8000         5
  57.8500         7
  57.9000         5
  57.9500         6
  58.0000         3
  58.0500         5
  58.1000         5
  58.1500         2
  58.2000         7
  58.2500         2
  58.3000         5
  58.3500         2
  58.4000         3
  58.4500         5
  58.5000         7
  58.5500         8
  58.6000         4
  58.6500         6
  58.7000         5
  58.7500         4
  58.8000         6
  58.8500         6
  58.9000         5
  58.9500         7
  59.0000         3
  59.0500         5
  59.1000         2
  59.1500         5
  59.2000         7
  59.2500         4
  59.3000         5
  59.3500         2
  59.4000         3
  59.4500         1
  59.5000         4
  59.5500         5
  59.6000         4
  59.6500         2
  59.7000         4
  59.7500         4
  59.8000         3
  59.8500         4
  59.9000         5
  59.9500         5
  60.0000         5
  60.0500         5
  60.1000         2
  60.1500         4
  60.2000         5
  60.2500         1
  60.3000         3
  60.3500         3
  60.4000         3
  60.4500         5
  60.5000         4
  60.5500         1
  60.6000         5
  60.6500         7
  60.7000         3
  60.7500         6
  60.8000         6
  60.8500         5
  60.9000         6
  60.9500         6
  61.0000         4
  61.0500         5
  61.1000         4
  61.1500         6
  61.2000         5
  61.2500         3
  61.3000         4
  61.3500         8
  61.4000         4
  61.4500         5
  61.5000         7
  61.5500         1
  61.6000         3
  61.6500         3
  61.7000         7
  61.7500         5
  61.8000         9
  61.8500         4
  61.9000         7
  61.9500         3
  62.0000         5
  62.0500         5
  62.1000         7
  62.1500         6
  62.2000         4
  62.2500         3
  62.3000         3
  62.3500         5
  62.4000         4
  62.4500         2
  62.5000         4
  62.5500         3
  62.6000         6
  62.6500         3
  62.7000         5
  62.7500         1
  62.8000         2
  62.8500         4
  62.9000         7
  62.9500         6
  63.0000         4
  63.0500         4
  63.1000         3
  63.1500         8
  63.2000         6
  63.2500         3
  63.3000         5
  63.3500         4
  63.4000         6
  63.4500         6
  63.5000         3
  63.5500         6
  63.6000         6
  63.6500         7
  63.7000         2
  63.7500         3
  63.8000         8
  63.8500         3
  63.9000         8
  63.9500         7
  64.0000         3
  64.0500         3
  64.1000         3
  64.1500         4
  64.2000         7
  64.2500         3
  64.3000         4
  64.3500         3
  64.4000         2
  64.4500        10
  64.5000         6
  64.5500         4
  64.6000         6
  64.6500         8
  64.7000         5
  64.7500         4
  64.8000         6
  64.8500         4
  64.9000         2
  64.9500         7
  65.0000         5
  65.0500         9
  65.1000         7
  65.1500         3
  65.2000         3
  65.2500         4
  65.3000         6
  65.3500         2
  65.4000         4
  65.4500         4
  65.5000         5
  65.5500         4
  65.6000         3
  65.6500         6
  65.7000         2
  65.7500         7
  65.8000         7
  65.8500         3
  65.9000         6
  65.9500         1
  66.0000         5
  66.0500         3
  66.1000         9
  66.1500         4
  66.2000         3
  66.2500         8
  66.3000         6
  66.3500         5
  66.4000         2
  66.4500         7
  66.5000         1
  66.5500         4
  66.6000         2
  66.6500         7
  66.7000         3
  66.7500         2
  66.8000         7
  66.8500         6
  66.9000         5
  66.9500         7
  67.0000         3
  67.0500         4
  67.1000         5
  67.1500         7
  67.2000         5
  67.2500         4
  67.3000         6
  67.3500         8
  67.4000         2
  67.4500         5
  67.5000         3
  67.5500         7
  67.6000         9
  67.6500         6
  67.7000         8
  67.7500         5
  67.8000         5
  67.8500         7
  67.9000         5
  67.9500         0
  68.0000         3
  68.0500         8
  68.1000         3
  68.1500         4
  68.2000        10
  68.2500         4
  68.3000         4
  68.3500         4
  68.4000         5
  68.4500         8
  68.5000         5
  68.5500         7
  68.6000         4
  68.6500         5
  68.7000         8
  68.7500         5
  68.8000         3
  68.8500         2
  68.9000         1
  68.9500         7
  69.0000         3
  69.0500         8
  69.1000         2
  69.1500         3
  69.2000         4
  69.2500         3
  69.3000         4
  69.3500         8
  69.4000         1
  69.4500         8
  69.5000         4
  69.5500         2
  69.6000         6
  69.6500         2
  69.7000         7
  69.7500         2
  69.8000         7
  69.8500         3
  69.9000         3
  69.9500         4
  70.0000         4
  70.0500         8
  70.1000         2
  70.1500         3
  70.2000         5
  70.2500         9
  70.3000         8
  70.3500         3
  70.4000         6
  70.4500         4
  70.5000         5
  70.5500         3
  70.6000         5
  70.6500         7
  70.7000        10
  70.7500         6
  70.8000         1
  70.8500         3
  70.9000         8
  70.9500         3
  71.0000         2
  71.0500         7
  71.1000         2
  71.1500         8
  71.2000         4
  71.2500         6
  71.3000         7
  71.3500         6
  71.4000         4
  71.4500         4
  71.5000         5
  71.5500         7
  71.6000         8
  71.6500         9
  71.7000         5
  71.7500         4
  71.8000        10
  71.8500         5
  71.9000         5
  71.9500         6
  72.0000         9
  72.0500         5
  72.1000         4
  72.1500         8
  72.2000         6
  72.2500         5
  72.3000         5
  72.3500         4
  72.4000         4
  72.4500        10
  72.5000        10
  72.5500         4
  72.6000         5
  72.6500         8
  72.7000         4
  72.7500        11
  72.8000         6
  72.8500        13
  72.9000         8
  72.9500        11
  73.0000         9
  73.0500         5
  73.1000         8
  73.1500         9
  73.2000        13
  73.2500         9
  73.3000        11
  73.3500        14
  73.4000        24
  73.4500        15
  73.5000        13
  73.5500        20
  73.6000        15
  73.6500        19
  73.7000        31
  73.7500        35
  73.8000        32
  73.8500        46
  73.9000        61
  73.9500        67
  74.0000       101
  74.0500       134
  74.1000       172
  74.1500       204
  74.2000       214
  74.2500       216
  74.3000       216
  74.3500       184
  74.4000       178
  74.4500       154
  74.5000       111
  74.5500        76
  74.6000        89
  74.6500        64
  74.7000        47
  74.7500        28
  74.8000        29
  74.8500        26
  74.9000        26
  74.9500        12
  75.0000        18
  75.0500        14
  75.1000        14
  75.1500        12
  75.2000        12
  75.2500         9
  75.3000         8
  75.3500         8
  75.4000         9
  75.4500        12
  75.5000        10
  75.5500        14
  75.6000         8
  75.6500        10
  75.7000         4
  75.7500         7
  75.8000         3
  75.8500         4
  75.9000        13
  75.9500         7
  76.0000         3
  76.0500         7
  76.1000         6
  76.1500         7
  76.2000         9
  76.2500         4
  76.3000         7
  76.3500         7
  76.4000         8
  76.4500         7
  76.5000         5
  76.5500         8
  76.6000         2
  76.6500         6
  76.7000         6
  76.7500         7
  76.8000         8
  76.8500        13
  76.9000         7
  76.9500         6
  77.0000         8
  77.0500        10
  77.1000         5
  77.1500         8
  77.2000         3
  77.2500         8
  77.3000         3
  77.3500         5
  77.4000         5
  77.4500         5
  77.5000         9
  77.5500         4
  77.6000         7
  77.6500         3
  77.7000         4
  77.7500         5
  77.8000        10
  77.8500         4
  77.9000         1
  77.9500         8
  78.0000         4
  78.0500         4
  78.1000         6
  78.1500         6
  78.2000         7
  78.2500         8
  78.3000         1
  78.3500         4
  78.4000         5
  78.4500         5
  78.5000         6
  78.5500         4
  78.6000         4
  78.6500         4
  78.7000         2
  78.7500         3
  78.8000         6
  78.8500         1
  78.9000         3
  78.9500         4
  79.0000         5
  79.0500         2
  79.1000         6
  79.1500         6
  79.2000         5
  79.2500         4
  79.3000         6
  79.3500         5
  79.4000         1
  79.4500         5
  79.5000         7
  79.5500         6
  79.6000         5
  79.6500         4
  79.7000         6
  79.7500         4
  79.8000         2
  79.8500         5
  79.9000         2
  79.9500         0
  80.0000         7
  80.0500         6
  80.1000         3
  80.1500         7
  80.2000         5
  80.2500         8
  80.3000         6
  80.3500         7
  80.4000         4
  80.4500         4
  80.5000         6
  80.5500         9
  80.6000         7
  80.6500         6
  80.7000         7
  80.7500         7
  80.8000         2
  80.8500         3
  80.9000         5
  80.9500         9
  81.0000         6
  81.0500         1
  81.1000         8
  81.1500         4
  81.2000         3
  81.2500         4
  81.3000         2
  81.3500         7
  81.4000         5
  81.4500         2
  81.5000         1
  81.5500         5
  81.6000         6
  81.6500         6
  81.7000         2
  81.7500         3
  81.8000         3
  81.8500         9
  81.9000         4
  81.9500         7
  82.0000         5
  82.0500         4
  82.1000         5
  82.1500         8
  82.2000         9
  82.2500         3
  82.3000         6
  82.3500         2
  82.4000         1
  82.4500         3
  82.5000         3
  82.5500         2
  82.6000         4
  82.6500         3
  82.7000         7
  82.7500         3
  82.8000         3
  82.8500         6
  82.9000         4
  82.9500         6
  83.0000         2
  83.0500         4
  83.1000         5
  83.1500         4
  83.2000         6
  83.2500         2
  83.3000         5
  83.3500         4
  83.4000         6
  83.4500         1
  83.5000         2
  83.5500         8
  83.6000         3
  83.6500         6
  83.7000         5
  83.7500         5
  83.8000         7
  83.8500         7
  83.9000         5
  83.9500         6
  84.0000         4
  84.0500         6
  84.1000         5
  84.1500         3
  84.2000         7
  84.2500         3
  84.3000         4
  84.3500         5
  84.4000         1
  84.4500         2
  84.5000         3
  84.5500         3
  84.6000         3
  84.6500         3
  84.7000         6
  84.7500         5
  84.8000         3
  84.8500         7
  84.9000         3
  84.9500         4
  85.0000         5
  85.0500         5
  85.1000         6
  85.1500         5
  85.2000         3
  85.2500         4
  85.3000         5
  85.3500         6
  85.4000         5
  85.4500         2
  85.5000         2
  85.5500         1
  85.6000         8
  85.6500         4
  85.7000         7
  85.7500         5
  85.8000         2
  85.8500         3
  85.9000         5
  85.9500         2
  86.0000         4
  86.0500         6
  86.1000         7
  86.1500         1
  86.2000         2
  86.2500         5
  86.3000         6
  86.3500         6
  86.4000         4
  86.4500         4
  86.5000         2
  86.5500        10
  86.6000         7
  86.6500         8
  86.7000         9
  86.7500         7
  86.8000         3
  86.8500         8
  86.9000         3
  86.9500        12
  87.0000         6
  87.0500         8
  87.1000         4
  87.1500         4
  87.2000         3
  87.2500         7
  87.3000         6
  87.3500         4
  87.4000         2
  87.4500         6
  87.5000        10
  87.5500         8
  87.6000         6
  87.6500         2
  87.7000         2
  87.7500         6
  87.8000         6
  87.8500         9
  87.9000         8
  87.9500         2
  88.0000         6
  88.0500         2
  88.1000         3
  88.1500        10
  88.2000        10
  88.2500         6
  88.3000        10
  88.3500         7
  88.4000        10
  88.4500         9
  88.5000         8
  88.5500         8
  88.6000         6
  88.6500         2
  88.7000        10
  88.7500        15
  88.8000        14
  88.8500         7
  88.9000        12
  88.9500         8
  89.0000        17
  89.0500         8
  89.1000        16
  89.1500        18
  89.2000        16
  89.2500        28
  89.3000        19
  89.3500        32
  89.4000        21
  89.4500        34
  89.5000        35
  89.5500        54
  89.6000        50
  89.6500        64
  89.7000        82
  89.7500        93
  89.8000       110
  89.8500       168
  89.9000       153
  89.9500       169
  90.0000       179
  90.0500       172
  90.1000       147
  90.1500       180
  90.2000       145
  90.2500       164
  90.3000        99
  90.3500       112
  90.4000        92
  90.4500        82
  90.5000        59
  90.5500        53
  90.6000        41
  90.6500        46
  90.7000        39
  90.7500        39
  90.8000        27
  90.8500        29
  90.9000        26
  90.9500        18
  91.0000        10
  91.0500        14
  91.1000         3
  91.1500        17
  91.2000        10
  91.2500         8
  91.3000         7
  91.3500         8
  91.4000        12
  91.4500         9
  91.5000         8
  91.5500         5
  91.6000        12
  91.6500         7
  91.7000        10
  91.7500         8
  91.8000         2
  91.8500         7
  91.9000         5
  91.9500         7
  92.0000         8
  92.0500         5
  92.1000         5
  92.1500         7
  92.2000         4
  92.2500         6
  92.3000         7
  92.3500         7
  92.4000         7
  92.4500         7
  92.5000         5
  92.5500         9
  92.6000         5
  92.6500         7
  92.7000         6
  92.7500         3
  92.8000         3
  92.8500         4
  92.9000         7
  92.9500         6
  93.0000         4
  93.0500         5
  93.1000         3
  93.1500         3
  93.2000         8
  93.2500         5
  93.3000        11
  93.3500         7
  93.4000         7
  93.4500         3
  93.5000         5
  93.5500         8
  93.6000         8
  93.6500         2
  93.7000         2
  93.7500         3
  93.8000         2
  93.8500         7
  93.9000         9
  93.9500         4
  94.0000         4
  94.0500         1
  94.1000         8
  94.1500         5
  94.2000         6
  94.2500         8
  94.3000         7
  94.3500        14
  94.4000         7
  94.4500         7
  94.5000         7
  94.5500         6
  94.6000        13
  94.6500         8
  94.7000        16
  94.7500        13
  94.8000        16
  94.8500        23
  94.9000        17
  94.9500        17
  95.0000        34
  95.0500        41
  95.1000        51
  95.1500        54
  95.2000        74
  95.2500        74
  95.3000        55
  95.3500        54
  95.4000        55
  95.4500        45
  95.5000        44
  95.5500        42
  95.6000        47
  95.6500        43
  95.7000        19
  95.7500        29
  95.8000        22
  95.8500         6
  95.9000         7
  95.9500        14
  96.0000         5
  96.0500        15
  96.1000         7
  96.1500         5
  96.2000         8
  96.2500         8
  96.3000        12
  96.3500         8
  96.4000         4
  96.4500        10
  96.5000         8
  96.5500         8
  96.6000         2
  96.6500         1
  96.7000         5
  96.7500         3
  96.8000         3
  96.8500         4
  96.9000         3
  96.9500         1
  97.0000         2
  97.0500         0
  97.1000         7
  97.1500         4
  97.2000         8
  97.2500         6
  97.3000         6
  97.3500         5
  97.4000         3
  97.4500         3
  97.5000         4
  97.5500         2
  97.6000         3
  97.6500         4
  97.7000         4
  97.7500         5
  97.8000         7
  97.8500         4
  97.9000         5
  97.9500         4
  98.0000         6
  98.0500         3
  98.1000         9
  98.1500         1
  98.2000         6
  98.2500         5
  98.3000         4
  98.3500         3
  98.4000         7
  98.4500         9
  98.5000         3
  98.5500         7
  98.6000         1
  98.6500         4
  98.7000         4
  98.7500         5
  98.8000         2
  98.8500         6
  98.9000         7
  98.9500         2
  99.0000         7
  99.0500         4
  99.1000         1
  99.1500         2
  99.2000         4
  99.2500         3
  99.3000         3
  99.3500         3
  99.4000         5
  99.4500         6
  99.5000         5
  99.5500         4
  99.6000         3
  99.6500         3
  99.7000         6
  99.7500         4
  99.8000         1
  99.8500         3
  99.9000         5
  99.9500         6
 100.0000         3
 100.0500         5
 100.1000         5
 100.1500         4
 100.2000         2
 100.2500         4
 100.3000         4
 100.3500         6
 100.4000         4
 100.4500         3
 100.5000         1
 100.5500         3
 100.6000         2
 100.6500         8
 100.7000         5
 100.7500         4
 100.8000         5
 100.8500         6
 100.9000         3
 100.9500         5
 101.0000         5
 101.0500         3
 101.1000         4
 101.1500         4
 101.2000         3
 101.2500         1
 101.3000         5
 101.3500         2
 101.4000         2
 101.4500         3
 101.5000         5
 101.5500         5
 101.6000         4
 101.6500         3
 101.7000         5
 101.7500         2
 101.8000         8
 101.8500         2
 101.9000         5
 101.9500         3
 102.0000         4
 102.0500         6
 102.1000         1
 102.1500         3
 102.2000         7
 102.2500         2
 102.3000         4
 102.3500         5
 102.4000         3
 102.4500         2
 102.5000         4
 102.5500         5
 102.6000         4
 102.6500         3
 102.7000         3
 102.7500         4
 102.8000         3
 102.8500         3
 102.9000         3
 102.9500         2
 103.0000         2
 103.0500         3
 103.1000         2
 103.1500         2
 103.2000         7
 103.2500         6
 103.3000         7
 103.3500         4
 103.4000         3
 103.4500         4
 103.5000         2
 103.5500         3
 103.6000         4
 103.6500         1
 103.7000         9
 103.7500         5
 103.8000         3
 103.8500         3
 103.9000         8
 103.9500         3
 104.0000         7
 104.0500         4
 104.1000         1
 104.1500         0
 104.2000         4
 104.2500         2
 104.3000         5
 104.3500         6
 104.4000         8
 104.4500         5
 104.5000         2
 104.5500         5
 104.6000         4
 104.6500         5
 104.7000         6
 104.7500         5
 104.8000         3
 104.8500         4
 104.9000         3
 104.9500         4
 105.0000         3
 105.0500         7
 105.1000         5
 105.1500         2
 105.2000         4
 105.2500         4
 105.3000         4
 105.3500         2
 105.4000         4
 105.4500         7
 105.5000         9
 105.5500         7
 105.6000         2
 105.6500         2
 105.7000         2
 105.7500         2
 105.8000         4
 105.8500         4
 105.9000         7
 105.9500         1
 106.0000         4
 106.0500         5
 106.1000         2
 106.1500         8
 106.2000         2
 106.2500         6
 106.3000         5
 106.3500         3
 106.4000         2
 106.4500         0
 106.5000         4
 106.5500         9
 106.6000         3
 106.6500         5
 106.7000         5
 106.7500         3
 106.8000         3
 106.8500         5
 106.9000         1
 106.9500         5
 107.0000         4
 107.0500         1
 107.1000         2
 107.1500         3
 107.2000         2
 107.2500         2
 107.3000         4
 107.3500         6
 107.4000         3
 107.4500         4
 107.5000         3
 107.5500         7
 107.6000         3
 107.6500         5
 107.7000         3
 107.7500         3
 107.8000         1
 107.8500         6
 107.9000         6
 107.9500         6
 108.0000         4
 108.0500         4
 108.1000         4
 108.1500         6
 108.2000         3
 108.2500         7
 108.3000         3
 108.3500         5
 108.4000         3
 108.4500         5
 108.5000         7
 108.5500         2
 108.6000         4
 108.6500         4
 108.7000         7
 108.7500         4
 108.8000         3
 108.8500         7
 108.9000         0
 108.9500         1
 109.0000         8
 109.0500         5
 109.1000         8
 109.1500         4
 109.2000         7
 109.2500         7
 109.3000         5
 109.3500         9
 109.4000         4
 109.4500         6
 109.5000         1
 109.5500         3
 109.6000         1
 109.6500         1
 109.7000         6
 109.7500         2
 109.8000         9
 109.8500         2
 109.9000         7
 109.9500         2
 110.0000         4
