  10.0000        11
  10.0500         5
  10.1000         9
  10.1500         7
  10.2000         6
  10.2500         6
  10.3000         8
  10.3500         8
  10.4000         7
  10.4500         9
  10.5000        15
  10.5500         6
  10.6000        11
  10.6500        13
  10.7000         7
  10.7500        10
  10.8000        12
  10.8500        11
  10.9000        14
  10.9500        12
  11.0000        16
  11.0500         7
  11.1000        11
  11.1500         6
  11.2000         9
  11.2500        10
  11.3000        14
  11.3500         9
  11.4000         8
  11.4500         8
  11.5000         9
  11.5500         4
  11.6000         4
  11.6500         9
  11.7000         7
  11.7500         9
  11.8000         6
  11.8500         9
  11.9000        10
  11.9500         8
  12.0000        11
  12.0500        10
  12.1000         4
  12.1500         9
  12.2000         8
  12.2500         8
  12.3000        11
  12.3500         5
  12.4000         8
  12.4500         7
  12.5000        11
  12.5500         8
  12.6000        11
  12.6500        14
  12.7000         4
  12.7500        10
  12.8000        12
  12.8500        13
  12.9000         6
  12.9500         4
  13.0000        13
  13.0500        12
  13.1000         8
  13.1500        15
  13.2000         4
  13.2500        10
  13.3000         9
  13.3500         7
  13.4000         3
  13.4500         6
  13.5000         6
  13.5500         9
  13.6000         4
  13.6500         7
  13.7000        10
  13.7500         6
  13.8000        10
  13.8500         8
  13.9000         8
  13.9500        10
  14.0000        13
  14.0500         1
  14.1000         8
  14.1500        13
  14.2000        12
  14.2500        11
  14.3000         7
  14.3500        11
  14.4000         6
  14.4500        10
  14.5000        12
  14.5500         8
  14.6000         8
  14.6500         8
  14.7000        10
  14.7500         9
  14.8000         9
  14.8500         7
  14.9000        10
  14.9500         7
  15.0000         5
  15.0500         8
  15.1000         8
  15.1500        10
  15.2000        10
  15.2500         9
  15.3000         8
  15.3500         5
  15.4000         7
  15.4500        12
  15.5000         6
  15.5500        10
  15.6000         9
  15.6500         6
  15.7000        11
  15.7500         6
  15.8000        10
  15.8500         8
  15.9000         5
  15.9500        10
  16.0000         8
  16.0500         9
  16.1000         3
  16.1500         8
  16.2000         7
  16.2500         8
  16.3000         9
  16.3500         7
  16.4000        10
  16.4500         4
  16.5000        10
  16.5500         7
  16.6000         4
  16.6500        14
  16.7000         9
  16.7500        14
  16.8000         8
  16.8500         7
  16.9000         9
  16.9500         7
  17.0000         9
  17.0500        13
  17.1000         7
  17.1500         6
  17.2000         4
  17.2500         6
  17.3000        11
  17.3500        10
  17.4000         8
  17.4500         8
  17.5000         6
  17.5500        13
  17.6000        11
  17.6500         6
  17.7000        15
  17.7500         8
  17.8000         6
  17.8500         8
  17.9000        10
  17.9500         7
  18.0000        10
  18.0500        10
  18.1000         9
  18.1500        11
  18.2000         7
  18.2500         3
  18.3000         6
  18.3500        10
  18.4000         7
  18.4500         7
  18.5000        13
  18.5500        10
  18.6000        12
  18.6500         9
  18.7000         9
  18.7500         6
  18.8000         9
  18.8500         8
  18.9000         9
  18.9500         6
  19.0000         6
  19.0500         3
  19.1000        13
  19.1500        10
  19.2000        12
  19.2500         6
  19.3000        12
  19.3500         9
  19.4000         9
  19.4500         5
  19.5000         7
  19.5500         8
  19.6000        20
  19.6500        11
  19.7000        14
  19.7500         4
  19.8000         5
  19.8500         8
  19.9000        11
  19.9500         8
  20.0000         7
  20.0500         6
  20.1000         6
  20.1500         6
  20.2000         7
  20.2500         8
  20.3000         5
  20.3500         9
  20.4000         7
  20.4500        13
  20.5000        11
  20.5500         7
  20.6000         6
  20.6500         9
  20.7000        10
  20.7500        10
  20.8000        12
  20.8500         8
  20.9000        10
  20.9500         6
  21.0000         7
  21.0500        14
  21.1000         4
  21.1500         2
  21.2000         8
  21.2500         9
  21.3000         5
  21.3500         9
  21.4000         6
  21.4500        11
  21.5000         9
  21.5500         6
  21.6000        10
  21.6500        11
  21.7000         9
  21.7500        11
  21.8000         7
  21.8500         7
  21.9000         5
  21.9500         6
  22.0000         6
  22.0500         9
  22.1000        11
  22.1500         8
  22.2000         7
  22.2500         1
  22.3000         9
  22.3500         7
  22.4000         7
  22.4500        10
  22.5000        10
  22.5500         5
  22.6000        14
  22.6500         5
  22.7000         8
  22.7500         7
  22.8000         8
  22.8500         8
  22.9000         2
  22.9500         6
  23.0000         7
  23.0500         5
  23.1000        11
  23.1500        13
  23.2000         8
  23.2500         9
  23.3000         4
  23.3500        11
  23.4000         9
  23.4500         7
  23.5000         6
  23.5500         5
  23.6000         9
  23.6500        11
  23.7000         3
  23.7500        10
  23.8000         3
  23.8500         6
  23.9000         9
  23.9500         9
  24.0000        12
  24.0500         8
  24.1000         7
  24.1500         8
  24.2000         7
  24.2500        13
  24.3000         7
  24.3500        11
  24.4000        11
  24.4500         8
  24.5000        10
  24.5500        11
  24.6000         3
  24.6500         8
  24.7000         6
  24.7500         5
  24.8000        10
  24.8500         9
  24.9000        11
  24.9500         7
  25.0000        11
  25.0500        13
  25.1000         6
  25.1500        10
  25.2000         7
  25.2500         6
  25.3000        13
  25.3500         5
  25.4000        11
  25.4500         7
  25.5000        12
  25.5500         7
  25.6000        12
  25.6500         8
  25.7000         5
  25.7500        12
  25.8000         8
  25.8500        11
  25.9000         9
  25.9500        11
  26.0000         9
  26.0500         9
  26.1000        12
  26.1500        10
  26.2000        10
  26.2500         6
  26.3000        10
  26.3500         7
  26.4000         7
  26.4500        12
  26.5000        10
  26.5500        13
  26.6000         5
  26.6500         5
  26.7000        13
  26.7500         8
  26.8000         9
  26.8500        11
  26.9000         9
  26.9500         5
  27.0000        14
  27.0500         4
  27.1000        12
  27.1500         4
  27.2000         4
  27.2500         5
  27.3000         7
  27.3500         6
  27.4000         3
  27.4500        12
  27.5000        10
  27.5500         5
  27.6000         9
  27.6500        10
  27.7000         7
  27.7500         9
  27.8000        11
  27.8500        14
  27.9000         8
  27.9500         8
  28.0000         5
  28.0500         7
  28.1000        10
  28.1500        11
  28.2000         7
  28.2500         9
  28.3000         6
  28.3500         5
  28.4000         5
  28.4500         4
  28.5000        12
  28.5500        15
  28.6000        20
  28.6500         8
  28.7000        16
  28.7500        13
  28.8000        12
  28.8500         8
  28.9000         9
  28.9500         8
  29.0000        14
  29.0500         4
  29.1000         6
  29.1500         9
  29.2000         7
  29.2500         9
  29.3000         5
  29.3500         8
  29.4000         9
  29.4500         4
  29.5000        12
  29.5500        15
  29.6000         7
  29.6500        10
  29.7000         9
  29.7500        12
  29.8000         7
  29.8500        12
  29.9000         5
  29.9500        10
  30.0000         7
  30.0500        10
  30.1000         5
  30.1500         9
  30.2000         9
  30.2500        10
  30.3000        14
  30.3500         6
  30.4000         5
  30.4500         9
  30.5000         6
  30.5500         4
  30.6000         7
  30.6500         6
  30.7000         6
  30.7500         6
  30.8000        10
  30.8500        13
  30.9000        11
  30.9500         9
  31.0000         7
  31.0500        11
  31.1000         8
  31.1500         6
  31.2000         9
  31.2500         6
  31.3000         4
  31.3500         9
  31.4000         9
  31.4500        11
  31.5000         9
  31.5500         9
  31.6000        13
  31.6500         8
  31.7000         5
  31.7500        11
  31.8000        10
  31.8500        10
  31.9000         5
  31.9500        10
  32.0000         7
  32.0500        12
  32.1000         9
  32.1500         9
  32.2000        12
  32.2500         5
  32.3000        13
  32.3500         5
  32.4000         2
  32.4500        12
  32.5000         7
  32.5500        12
  32.6000         7
  32.6500         4
  32.7000         3
  32.7500        10
  32.8000        11
  32.8500        12
  32.9000         4
  32.9500         9
  33.0000         7
  33.0500        10
  33.1000         8
  33.1500         7
  33.2000         7
  33.2500         6
  33.3000        11
  33.3500         3
  33.4000         6
  33.4500         5
  33.5000         8
  33.5500         7
  33.6000        10
  33.6500        12
  33.7000         4
  33.7500         6
  33.8000         7
  33.8500         7
  33.9000         5
  33.9500        14
  34.0000         8
  34.0500         6
  34.1000        10
  34.1500         8
  34.2000        10
  34.2500         9
  34.3000        14
  34.3500         8
  34.4000         8
  34.4500        13
  34.5000        12
  34.5500         6
  34.6000        12
  34.6500         6
  34.7000         7
  34.7500        11
  34.8000         4
  34.8500        13
  34.9000         8
  34.9500         6
  35.0000        10
  35.0500         9
  35.1000        13
  35.1500        14
  35.2000        10
  35.2500         8
  35.3000        10
  35.3500         6
  35.4000        13
  35.4500         7
  35.5000         5
  35.5500         3
  35.6000        12
  35.6500         7
  35.7000         7
  35.7500         9
  35.8000         8
  35.8500        13
  35.9000         6
  35.9500        11
  36.0000        10
  36.0500        13
  36.1000        11
  36.1500        10
  36.2000         7
  36.2500        11
  36.3000         9
  36.3500         9
  36.4000         8
  36.4500         6
  36.5000         8
  36.5500        11
  36.6000         4
  36.6500        10
  36.7000         8
  36.7500         7
  36.8000        12
  36.8500         8
  36.9000         8
  36.9500         1
  37.0000         6
  37.0500         7
  37.1000         6
  37.1500         5
  37.2000         7
  37.2500         9
  37.3000         7
  37.3500         8
  37.4000         9
  37.4500        10
  37.5000        13
  37.5500         8
  37.6000        11
  37.6500        13
  37.7000         9
  37.7500         9
  37.8000         9
  37.8500        13
  37.9000         4
  37.9500         5
  38.0000         5
  38.0500         5
  38.1000        11
  38.1500         4
  38.2000        13
  38.2500         7
  38.3000        12
  38.3500        12
  38.4000         4
  38.4500         8
  38.5000        12
  38.5500        11
  38.6000        11
  38.6500         4
  38.7000        13
  38.7500        14
  38.8000         9
  38.8500        12
  38.9000         8
  38.9500         9
  39.0000        14
  39.0500         8
  39.1000         9
  39.1500        16
  39.2000        12
  39.2500         8
  39.3000         5
  39.3500         7
  39.4000         9
  39.4500         8
  39.5000         9
  39.5500        10
  39.6000        13
  39.6500         9
  39.7000         9
  39.7500         8
  39.8000        13
  39.8500        11
  39.9000         9
  39.9500         5
  40.0000        10
  40.0500        10
  40.1000        12
  40.1500        14
  40.2000         8
  40.2500        13
  40.3000        10
  40.3500         8
  40.4000        10
  40.4500        13
  40.5000         9
  40.5500        10
  40.6000         5
  40.6500         9
  40.7000        14
  40.7500         7
  40.8000         7
  40.8500        12
  40.9000         9
  40.9500         8
  41.0000        11
  41.0500         9
  41.1000         9
  41.1500        15
  41.2000         7
  41.2500         7
  41.3000         8
  41.3500        13
  41.4000        11
  41.4500        11
  41.5000         7
  41.5500        11
  41.6000         8
  41.6500        11
  41.7000        11
  41.7500         7
  41.8000         7
  41.8500         8
  41.9000        11
  41.9500        10
  42.0000         5
  42.0500        10
  42.1000         6
  42.1500        10
  42.2000         9
  42.2500         9
  42.3000         8
  42.3500        12
  42.4000        11
  42.4500        15
  42.5000        12
  42.5500         9
  42.6000        15
  42.6500        13
  42.7000        20
  42.7500        14
  42.8000        16
  42.8500        18
  42.9000        14
  42.9500        23
  43.0000        17
  43.0500        22
  43.1000        17
  43.1500        23
  43.2000        17
  43.2500        29
  43.3000        25
  43.3500        32
  43.4000        35
  43.4500        31
  43.5000        25
  43.5500        27
  43.6000        35
  43.6500        36
  43.7000        38
  43.7500        45
  43.8000        49
  43.8500        53
  43.9000        79
  43.9500        97
  44.0000       127
  44.0500       229
  44.1000       339
  44.1500       475
  44.2000       710
  44.2500       992
  44.3000      1125
  44.3500      1129
  44.4000       974
  44.4500       798
  44.5000       599
  44.5500       368
  44.6000       262
  44.6500       168
  44.7000       104
  44.7500        92
  44.8000        58
  44.8500        50
  44.9000        44
  44.9500        31
  45.0000        24
  45.0500        35
  45.1000        24
  45.1500        32
  45.2000        12
  45.2500        24
  45.3000        12
  45.3500        18
  45.4000        17
  45.4500        17
  45.5000        15
  45.5500        19
  45.6000        14
  45.6500        14
  45.7000        13
  45.7500        16
  45.8000        12
  45.8500        15
  45.9000        19
  45.9500        10
  46.0000        10
  46.0500        16
  46.1000        13
  46.1500        12
  46.2000        16
  46.2500        16
  46.3000         8
  46.3500        14
  46.4000        14
  46.4500        17
  46.5000         9
  46.5500         5
  46.6000        13
  46.6500        10
  46.7000        14
  46.7500         7
  46.8000        11
  46.8500         9
  46.9000        14
  46.9500         8
  47.0000        12
  47.0500        11
  47.1000        13
  47.1500        10
  47.2000         9
  47.2500        13
  47.3000        15
  47.3500        13
  47.4000        12
  47.4500        13
  47.5000        15
  47.5500         6
  47.6000        12
  47.6500        10
  47.7000         8
  47.7500         9
  47.8000         8
  47.8500         4
  47.9000         7
  47.9500        12
  48.0000        12
  48.0500        11
  48.1000        14
  48.1500        11
  48.2000        12
  48.2500         8
  48.3000         6
  48.3500        12
  48.4000         6
  48.4500        13
  48.5000        12
  48.5500        13
  48.6000        13
  48.6500        12
  48.7000        10
  48.7500         8
  48.8000         8
  48.8500        13
  48.9000         8
  48.9500         5
  49.0000        12
  49.0500        10
  49.1000        16
  49.1500         8
  49.2000         8
  49.2500         9
  49.3000        10
  49.3500        12
  49.4000        10
  49.4500         7
  49.5000         5
  49.5500         6
  49.6000         8
  49.6500        10
  49.7000         8
  49.7500        15
  49.8000        12
  49.8500        14
  49.9000        16
  49.9500         9
  50.0000         9
  50.0500        17
  50.1000        14
  50.1500         9
  50.2000        11
  50.2500        14
  50.3000        24
  50.3500        13
  50.4000        14
  50.4500        13
  50.5000        24
  50.5500        15
  50.6000        12
  50.6500        21
  50.7000        18
  50.7500        17
  50.8000        26
  50.8500        26
  50.9000        45
  50.9500        33
  51.0000        30
  51.0500        41
  51.1000        46
  51.1500        67
  51.2000        76
  51.2500        93
  51.3000       110
  51.3500       141
  51.4000       163
  51.4500       264
  51.5000       273
  51.5500       333
  51.6000       365
  51.6500       355
  51.7000       300
  51.7500       285
  51.8000       254
  51.8500       200
  51.9000       158
  51.9500       128
  52.0000       103
  52.0500        61
  52.1000        62
  52.1500        48
  52.2000        43
  52.2500        30
  52.3000        30
  52.3500        23
  52.4000        24
  52.4500        12
  52.5000        14
  52.5500        14
  52.6000        17
  52.6500        12
  52.7000        18
  52.7500        11
  52.8000        13
  52.8500        12
  52.9000        16
  52.9500         9
  53.0000        16
  53.0500        16
  53.1000         8
  53.1500        10
  53.2000         9
  53.2500        12
  53.3000         9
  53.3500        10
  53.4000        14
  53.4500        17
  53.5000        12
  53.5500        15
  53.6000         3
  53.6500        12
  53.7000         9
  53.7500        12
  53.8000        11
  53.8500         6
  53.9000         9
  53.9500        13
  54.0000        12
  54.0500        14
  54.1000        17
  54.1500        15
  54.2000         9
  54.2500        12
  54.3000         8
  54.3500         9
  54.4000         6
  54.4500         9
  54.5000        10
  54.5500        11
  54.6000         8
  54.6500         7
  54.7000        10
  54.7500        13
  54.8000         9
  54.8500        11
  54.9000        10
  54.9500        14
  55.0000        13
  55.0500        15
  55.1000         7
  55.1500        12
  55.2000        14
  55.2500        12
  55.3000        14
  55.3500         9
  55.4000        10
  55.4500         9
  55.5000         6
  55.5500         9
  55.6000        10
  55.6500        10
  55.7000        13
  55.7500         9
  55.8000        15
  55.8500         6
  55.9000        11
  55.9500        14
  56.0000        11
  56.0500        11
  56.1000         5
  56.1500         7
  56.2000        10
  56.2500         9
  56.3000         7
  56.3500         3
  56.4000         9
  56.4500         6
  56.5000         8
  56.5500         6
  56.6000        12
  56.6500        11
  56.7000        12
  56.7500         8
  56.8000         7
  56.8500         3
  56.9000         6
  56.9500         7
  57.0000        10
  57.0500         9
  57.1000         4
  57.1500        10
  57.2000        10
  57.2500         9
  57.3000        11
  57.3500        12
  57.4000         9
  57.4500         8
  57.5000         8
  57.5500         8
  57.6000        11
  57.6500         9
  57.7000         9
  57.7500         6
  57.8000         8
  57.8500         9
  57.9000         9
  57.9500         7
  58.0000         9
  58.0500        11
  58.1000         8
  58.1500         4
  58.2000        13
  58.2500         4
  58.3000         5
  58.3500        11
  58.4000         7
  58.4500        10
  58.5000         5
  58.5500         9
  58.6000         8
  58.6500        11
  58.7000        10
  58.7500         4
  58.8000         3
  58.8500         8
  58.9000        11
  58.9500        10
  59.0000         9
  59.0500        11
  59.1000         8
  59.1500        11
  59.2000         9
  59.2500        10
  59.3000         7
  59.3500        12
  59.4000         9
  59.4500         9
  59.5000         5
  59.5500         9
  59.6000         6
  59.6500        14
  59.7000        14
  59.7500         8
  59.8000         6
  59.8500        10
  59.9000         5
  59.9500        11
  60.0000        13
  60.0500         9
  60.1000         4
  60.1500         8
  60.2000        11
  60.2500         1
  60.3000         4
  60.3500         9
  60.4000         7
  60.4500        11
  60.5000         7
  60.5500         7
  60.6000         6
  60.6500         9
  60.7000         6
  60.7500         6
  60.8000         8
  60.8500         5
  60.9000        10
  60.9500         6
  61.0000         5
  61.0500         5
  61.1000         9
  61.1500        17
  61.2000         8
  61.2500         8
  61.3000         9
  61.3500        12
  61.4000         6
  61.4500         2
  61.5000        17
  61.5500         9
  61.6000         7
  61.6500        14
  61.7000         8
  61.7500         8
  61.8000         8
  61.8500         8
  61.9000        11
  61.9500        12
  62.0000         6
  62.0500        11
  62.1000         8
  62.1500        11
  62.2000         6
  62.2500        10
  62.3000        10
  62.3500        12
  62.4000        13
  62.4500         6
  62.5000         2
  62.5500        10
  62.6000         6
  62.6500         7
  62.7000        13
  62.7500         5
  62.8000        13
  62.8500        12
  62.9000        12
  62.9500        12
  63.0000        11
  63.0500        13
  63.1000        12
  63.1500         8
  63.2000        12
  63.2500         9
  63.3000        12
  63.3500         3
  63.4000         6
  63.4500         7
  63.5000        16
  63.5500        10
  63.6000         8
  63.6500        10
  63.7000         5
  63.7500         7
  63.8000         2
  63.8500         9
  63.9000         8
  63.9500        10
  64.0000         7
  64.0500         5
  64.1000         5
  64.1500         7
  64.2000        12
  64.2500         8
  64.3000        10
  64.3500         7
  64.4000        11
  64.4500         6
  64.5000        10
  64.5500        10
  64.6000         9
  64.6500         4
  64.7000         9
  64.7500         9
  64.8000        10
  64.8500         9
  64.9000        13
  64.9500         8
  65.0000        12
  65.0500        10
  65.1000        10
  65.1500         7
  65.2000        11
  65.2500         9
  65.3000         8
  65.3500        11
  65.4000         9
  65.4500         7
  65.5000         9
  65.5500        13
  65.6000         7
  65.6500        10
  65.7000        10
  65.7500         9
  65.8000        12
  65.8500         9
  65.9000        12
  65.9500         5
  66.0000         8
  66.0500        13
  66.1000        15
  66.1500        14
  66.2000         7
  66.2500         7
  66.3000         8
  66.3500         9
  66.4000         9
  66.4500         7
  66.5000        14
  66.5500         8
  66.6000        12
  66.6500        11
  66.7000        11
  66.7500         1
  66.8000        11
  66.8500        11
  66.9000         8
  66.9500        14
  67.0000         8
  67.0500        10
  67.1000        14
  67.1500         8
  67.2000         5
  67.2500        14
  67.3000        12
  67.3500        14
  67.4000        12
  67.4500         3
  67.5000        12
  67.5500        11
  67.6000         7
  67.6500         8
  67.7000        13
  67.7500         8
  67.8000         3
  67.8500         7
  67.9000         9
  67.9500        11
  68.0000         6
  68.0500         5
  68.1000        11
  68.1500         7
  68.2000         7
  68.2500         8
  68.3000        10
  68.3500        12
  68.4000         9
  68.4500        13
  68.5000        12
  68.5500        12
  68.6000         8
  68.6500         9
  68.7000        18
  68.7500        12
  68.8000        11
  68.8500         8
  68.9000         8
  68.9500         9
  69.0000         7
  69.0500        12
  69.1000        10
  69.1500         8
  69.2000        15
  69.2500        10
  69.3000         8
  69.3500         7
  69.4000        14
  69.4500         9
  69.5000         8
  69.5500         6
  69.6000        13
  69.6500        15
  69.7000        11
  69.7500        11
  69.8000        11
  69.8500        11
  69.9000         8
  69.9500         8
  70.0000        15
  70.0500        14
  70.1000        12
  70.1500         7
  70.2000         9
  70.2500        15
  70.3000         9
  70.3500        11
  70.4000        11
  70.4500        10
  70.5000        14
  70.5500         7
  70.6000        13
  70.6500         8
  70.7000         6
  70.7500        11
  70.8000         7
  70.8500         5
  70.9000         8
  70.9500         7
  71.0000        12
  71.0500        11
  71.1000         8
  71.1500        11
  71.2000        10
  71.2500         5
  71.3000         9
  71.3500         7
  71.4000        13
  71.4500         8
  71.5000         8
  71.5500         4
  71.6000        11
  71.6500         9
  71.7000        10
  71.7500        10
  71.8000        10
  71.8500        12
  71.9000         9
  71.9500         6
  72.0000         8
  72.0500        21
  72.1000        11
  72.1500        10
  72.2000        13
  72.2500        14
  72.3000        10
  72.3500        12
  72.4000        17
  72.4500        15
  72.5000         9
  72.5500        13
  72.6000         8
  72.6500         7
  72.7000        11
  72.7500        13
  72.8000         8
  72.8500         8
  72.9000         9
  72.9500         8
  73.0000        14
  73.0500         9
  73.1000        12
  73.1500        10
  73.2000        11
  73.2500        14
  73.3000        11
  73.3500        10
  73.4000        12
  73.4500         8
  73.5000        12
  73.5500        10
  73.6000         9
  73.6500        14
  73.7000         7
  73.7500        18
  73.8000        11
  73.8500        10
  73.9000         5
  73.9500        10
  74.0000        14
  74.0500        10
  74.1000        11
  74.1500        14
  74.2000        10
  74.2500         9
  74.3000        12
  74.3500        11
  74.4000        10
  74.4500        14
  74.5000         9
  74.5500        14
  74.6000        17
  74.6500        15
  74.7000        17
  74.7500         9
  74.8000        12
  74.8500        19
  74.9000        16
  74.9500        14
  75.0000        15
  75.0500        11
  75.1000        22
  75.1500        22
  75.2000        14
  75.2500        17
  75.3000        18
  75.3500        22
  75.4000        30
  75.4500        37
  75.5000        32
  75.5500        60
  75.6000        50
  75.6500        90
  75.7000        66
  75.7500       104
  75.8000       109
  75.8500       115
  75.9000       130
  75.9500       140
  76.0000       173
  76.0500       155
  76.1000       130
  76.1500       126
  76.2000       113
  76.2500        99
  76.3000        68
  76.3500        67
  76.4000        55
  76.4500        44
  76.5000        26
  76.5500        34
  76.6000        23
  76.6500        23
  76.7000        26
  76.7500        23
  76.8000        19
  76.8500        18
  76.9000        15
  76.9500         8
  77.0000        15
  77.0500        14
  77.1000        19
  77.1500         9
  77.2000        16
  77.2500        15
  77.3000         7
  77.3500         9
  77.4000        12
  77.4500        11
  77.5000         7
  77.5500         9
  77.6000        11
  77.6500        12
  77.7000        18
  77.7500        10
  77.8000        11
  77.8500        12
  77.9000         9
  77.9500         6
  78.0000         6
  78.0500         6
  78.1000        13
  78.1500         7
  78.2000        11
  78.2500        10
  78.3000         8
  78.3500        12
  78.4000        10
  78.4500        15
  78.5000        11
  78.5500        12
  78.6000        11
  78.6500         6
  78.7000         9
  78.7500        15
  78.8000        10
  78.8500         9
  78.9000        13
  78.9500        11
  79.0000         8
  79.0500         4
  79.1000        10
  79.1500        12
  79.2000        10
  79.2500        10
  79.3000        10
  79.3500        11
  79.4000        11
  79.4500        12
  79.5000        18
  79.5500        10
  79.6000         9
  79.6500         9
  79.7000        11
  79.7500        12
  79.8000         9
  79.8500        12
  79.9000        12
  79.9500         8
  80.0000         9
  80.0500        11
  80.1000        13
  80.1500         7
  80.2000        12
  80.2500        14
  80.3000         8
  80.3500        13
  80.4000         9
  80.4500        11
  80.5000        10
  80.5500         7
  80.6000        11
  80.6500         8
  80.7000         8
  80.7500         9
  80.8000        10
  80.8500        16
  80.9000        14
  80.9500         8
  81.0000        11
  81.0500         9
  81.1000         7
  81.1500        14
  81.2000         9
  81.2500         9
  81.3000         9
  81.3500         6
  81.4000         8
  81.4500        13
  81.5000         6
  81.5500         4
  81.6000         8
  81.6500         5
  81.7000        14
  81.7500        11
  81.8000        14
  81.8500        14
  81.9000        15
  81.9500         8
  82.0000         7
  82.0500        12
  82.1000        15
  82.1500         9
  82.2000         9
  82.2500        10
  82.3000        11
  82.3500         9
  82.4000         6
  82.4500        10
  82.5000        10
  82.5500        10
  82.6000        12
  82.6500        13
  82.7000         8
  82.7500         6
  82.8000         7
  82.8500        12
  82.9000         9
  82.9500         9
  83.0000         7
  83.0500        18
  83.1000        13
  83.1500        15
  83.2000        11
  83.2500        19
  83.3000        13
  83.3500         8
  83.4000         5
  83.4500         3
  83.5000         7
  83.5500        12
  83.6000        10
  83.6500         7
  83.7000         9
  83.7500        16
  83.8000         9
  83.8500         6
  83.9000         7
  83.9500        16
  84.0000         9
  84.0500        13
  84.1000         9
  84.1500         8
  84.2000         8
  84.2500        11
  84.3000        16
  84.3500         8
  84.4000        11
  84.4500         7
  84.5000        11
  84.5500        15
  84.6000        11
  84.6500        12
  84.7000        19
  84.7500        19
  84.8000         7
  84.8500        12
  84.9000         8
  84.9500         9
  85.0000        12
  85.0500        10
  85.1000        11
  85.1500         9
  85.2000         8
  85.2500        14
  85.3000        13
  85.3500         8
  85.4000         8
  85.4500        11
  85.5000        12
  85.5500         8
  85.6000         8
  85.6500        11
  85.7000        10
  85.7500         9
  85.8000        14
  85.8500         8
  85.9000         5
  85.9500        13
  86.0000         8
  86.0500        10
  86.1000         5
  86.1500         8
  86.2000        16
  86.2500         9
  86.3000         9
  86.3500        10
  86.4000         9
  86.4500        11
  86.5000         7
  86.5500         5
  86.6000        11
  86.6500        14
  86.7000        16
  86.7500        10
  86.8000        10
  86.8500        15
  86.9000        13
  86.9500        10
  87.0000        10
  87.0500         9
  87.1000        12
  87.1500         9
  87.2000        14
  87.2500         8
  87.3000        11
  87.3500         8
  87.4000         9
  87.4500        11
  87.5000        12
  87.5500         8
  87.6000        17
  87.6500         7
  87.7000         8
  87.7500         9
  87.8000         4
  87.8500         7
  87.9000        11
  87.9500        10
  88.0000         5
  88.0500        12
  88.1000         4
  88.1500        12
  88.2000        13
  88.2500         6
  88.3000         7
  88.3500        13
  88.4000        12
  88.4500        14
  88.5000        10
  88.5500        11
  88.6000        13
  88.6500         8
  88.7000         7
  88.7500        16
  88.8000        12
  88.8500         8
  88.9000        10
  88.9500         8
  89.0000        12
  89.0500        14
  89.1000         9
  89.1500         6
  89.2000        13
  89.2500        18
  89.3000         6
  89.3500        11
  89.4000        13
  89.4500        12
  89.5000        13
  89.5500        11
  89.6000        13
  89.6500        11
  89.7000         9
  89.7500        10
  89.8000        14
  89.8500        10
  89.9000        13
  89.9500         8
  90.0000        11
  90.0500        23
  90.1000        12
  90.1500        16
  90.2000        16
  90.2500         5
  90.3000        14
  90.3500        13
  90.4000        16
  90.4500        17
  90.5000         8
  90.5500        10
  90.6000        10
  90.6500        12
  90.7000        18
  90.7500         9
  90.8000        16
  90.8500        14
  90.9000        16
  90.9500        21
  91.0000        13
  91.0500        22
  91.1000        14
  91.1500        21
  91.2000        19
  91.2500        13
  91.3000        12
  91.3500        13
  91.4000        20
  91.4500        23
  91.5000        25
  91.5500        29
  91.6000        28
  91.6500        28
  91.7000        35
  91.7500        31
  91.8000        42
  91.8500        43
  91.9000        42
  91.9500        62
  92.0000        67
  92.0500       104
  92.1000        93
  92.1500        99
  92.2000        90
  92.2500       106
  92.3000       116
  92.3500       132
  92.4000       126
  92.4500       115
  92.5000       112
  92.5500        93
  92.6000       115
  92.6500       106
  92.7000        83
  92.7500        76
  92.8000        66
  92.8500        66
  92.9000        70
  92.9500        36
  93.0000        53
  93.0500        38
  93.1000        39
  93.1500        23
  93.2000        34
  93.2500        15
  93.3000        30
  93.3500        22
  93.4000        23
  93.4500        20
  93.5000        16
  93.5500        18
  93.6000        16
  93.6500        17
  93.7000        10
  93.7500         9
  93.8000        16
  93.8500        16
  93.9000        12
  93.9500        16
  94.0000        15
  94.0500        10
  94.1000        17
  94.1500        11
  94.2000        11
  94.2500        15
  94.3000        14
  94.3500        16
  94.4000        19
  94.4500        10
  94.5000         9
  94.5500        11
  94.6000        10
  94.6500        17
  94.7000        14
  94.7500        14
  94.8000        12
  94.8500         8
  94.9000        13
  94.9500         8
  95.0000        15
  95.0500        12
  95.1000         8
  95.1500        15
  95.2000        12
  95.2500        16
  95.3000         4
  95.3500        17
  95.4000         6
  95.4500        10
  95.5000        14
  95.5500        14
  95.6000        14
  95.6500        11
  95.7000        12
  95.7500        12
  95.8000        12
  95.8500        10
  95.9000        11
  95.9500         4
  96.0000        12
  96.0500        13
  96.1000         9
  96.1500         9
  96.2000        10
  96.2500         6
  96.3000         8
  96.3500        13
  96.4000        14
  96.4500        11
  96.5000        11
  96.5500        13
  96.6000        13
  96.6500         9
  96.7000        17
  96.7500        14
  96.8000        15
  96.8500        17
  96.9000        12
  96.9500        14
  97.0000        16
  97.0500        12
  97.1000        17
  97.1500        14
  97.2000        25
  97.2500        18
  97.3000        18
  97.3500        16
  97.4000        24
  97.4500        25
  97.5000        24
  97.5500        29
  97.6000        40
  97.6500        45
  97.7000        38
  97.7500        49
  97.8000        53
  97.8500        50
  97.9000        49
  97.9500        49
  98.0000        50
  98.0500        42
  98.1000        40
  98.1500        27
  98.2000        35
  98.2500        33
  98.3000        24
  98.3500        21
  98.4000        26
  98.4500        24
  98.5000        20
  98.5500        12
  98.6000        15
  98.6500        18
  98.7000        12
  98.7500        12
  98.8000        16
  98.8500        11
  98.9000        13
  98.9500        12
  99.0000        14
  99.0500        20
  99.1000         9
  99.1500        13
  99.2000        14
  99.2500         9
  99.3000        13
  99.3500        14
  99.4000        10
  99.4500        12
  99.5000         9
  99.5500        13
  99.6000         8
  99.6500        15
  99.7000        11
  99.7500         8
  99.8000        12
  99.8500        12
  99.9000        14
  99.9500        11
 100.0000        10
 100.0500         6
 100.1000        13
 100.1500        14
 100.2000        14
 100.2500        11
 100.3000        10
 100.3500         6
 100.4000         9
 100.4500        11
 100.5000        13
 100.5500        13
 100.6000         7
 100.6500        19
 100.7000        12
 100.7500         9
 100.8000         8
 100.8500        10
 100.9000        12
 100.9500        13
 101.0000        11
 101.0500        14
 101.1000        11
 101.1500         6
 101.2000        10
 101.2500        10
 101.3000         9
 101.3500        13
 101.4000        11
 101.4500        10
 101.5000        12
 101.5500        17
 101.6000         9
 101.6500         6
 101.7000        16
 101.7500        21
 101.8000         6
 101.8500         8
 101.9000        12
 101.9500        10
 102.0000         7
 102.0500         5
 102.1000         3
 102.1500         8
 102.2000        14
 102.2500        14
 102.3000         6
 102.3500        14
 102.4000         8
 102.4500         8
 102.5000        13
 102.5500        10
 102.6000        12
 102.6500         7
 102.7000         6
 102.7500         8
 102.8000        14
 102.8500         8
 102.9000         8
 102.9500        11
 103.0000         3
 103.0500        11
 103.1000        13
 103.1500        11
 103.2000         8
 103.2500         9
 103.3000        16
 103.3500        14
 103.4000        15
 103.4500        11
 103.5000        11
 103.5500         6
 103.6000        10
 103.6500        13
 103.7000        14
 103.7500         9
 103.8000         9
 103.8500        13
 103.9000        11
 103.9500         9
 104.0000        11
 104.0500         9
 104.1000        14
 104.1500         7
 104.2000         8
 104.2500        13
 104.3000        11
 104.3500         9
 104.4000        12
 104.4500        10
 104.5000         9
 104.5500         6
 104.6000        12
 104.6500        11
 104.7000        12
 104.7500        12
 104.8000         8
 104.8500         7
 104.9000        11
 104.9500        12
 105.0000        11
 105.0500         8
 105.1000        18
 105.1500        14
 105.2000         8
 105.2500        14
 105.3000        10
 105.3500         8
 105.4000         6
 105.4500         7
 105.5000        10
 105.5500        16
 105.6000        15
 105.6500         9
 105.7000        10
 105.7500        14
 105.8000        17
 105.8500        13
 105.9000         8
 105.9500        14
 106.0000        14
 106.0500         9
 106.1000         9
 106.1500        11
 106.2000         9
 106.2500        10
 106.3000        14
 106.3500        15
 106.4000        13
 106.4500        12
 106.5000         9
 106.5500         6
 106.6000         8
 106.6500        15
 106.7000        10
 106.7500        13
 106.8000        13
 106.8500         9
 106.9000        13
 106.9500        19
 107.0000        13
 107.0500        10
 107.1000        12
 107.1500        16
 107.2000        16
 107.2500        11
 107.3000         7
 107.3500        11
 107.4000         6
 107.4500         9
 107.5000        10
 107.5500        11
 107.6000        11
 107.6500         9
 107.7000        12
 107.7500         9
 107.8000         6
 107.8500         9
 107.9000        11
 107.9500        10
 108.0000        15
 108.0500        13
 108.1000         7
 108.1500         9
 108.2000         8
 108.2500         8
 108.3000        14
 108.3500        17
 108.4000        10
 108.4500        18
 108.5000         7
 108.5500         6
 108.6000        13
 108.6500        10
 108.7000         8
 108.7500        11
 108.8000        11
 108.8500         9
 108.9000         9
 108.9500        11
 109.0000        18
 109.0500         9
 109.1000         8
 109.1500         9
 109.2000        15
 109.2500         9
 109.3000        12
 109.3500         9
 109.4000        11
 109.4500        15
 109.5000        14
 109.5500         5
 109.6000        16
 109.6500        11
 109.7000        11
 109.7500         9
 109.8000         9
 109.8500        16
 109.9000        10
 109.9500         8
 110.0000        12
