  10.0000         7
  10.0500        10
  10.1000         9
  10.1500         6
  10.2000         6
  10.2500        15
  10.3000        15
  10.3500         8
  10.4000         8
  10.4500        10
  10.5000        12
  10.5500         6
  10.6000        12
  10.6500         6
  10.7000        13
  10.7500         3
  10.8000         7
  10.8500        12
  10.9000         4
  10.9500        15
  11.0000        15
  11.0500         9
  11.1000         9
  11.1500        10
  11.2000        11
  11.2500        10
  11.3000         7
  11.3500         8
  11.4000         4
  11.4500         7
  11.5000         1
  11.5500        13
  11.6000        12
  11.6500         9
  11.7000         7
  11.7500         8
  11.8000         8
  11.8500         5
  11.9000         6
  11.9500         8
  12.0000         9
  12.0500         5
  12.1000         3
  12.1500         5
  12.2000        11
  12.2500         9
  12.3000        13
  12.3500        10
  12.4000        15
  12.4500         8
  12.5000        10
  12.5500         3
  12.6000        10
  12.6500         6
  12.7000         6
  12.7500         4
  12.8000         5
  12.8500        10
  12.9000         6
  12.9500        10
  13.0000        10
  13.0500         6
  13.1000         9
  13.1500         5
  13.2000         1
  13.2500         9
  13.3000         7
  13.3500         9
  13.4000         8
  13.4500         7
  13.5000        11
  13.5500         2
  13.6000         7
  13.6500         4
  13.7000         4
  13.7500         8
  13.8000         7
  13.8500         5
  13.9000        10
  13.9500         6
  14.0000         9
  14.0500        12
  14.1000         4
  14.1500         7
  14.2000         4
  14.2500        12
  14.3000         9
  14.3500         7
  14.4000         9
  14.4500         8
  14.5000         9
  14.5500         9
  14.6000         5
  14.6500        11
  14.7000         7
  14.7500        10
  14.8000         6
  14.8500         3
  14.9000        11
  14.9500         4
  15.0000         3
  15.0500         5
  15.1000        11
  15.1500         7
  15.2000         7
  15.2500        11
  15.3000         5
  15.3500        10
  15.4000         8
  15.4500        11
  15.5000         9
  15.5500         7
  15.6000        10
  15.6500         6
  15.7000         6
  15.7500         8
  15.8000         2
  15.8500         6
  15.9000         5
  15.9500         8
  16.0000        13
  16.0500         7
  16.1000         7
  16.1500         3
  16.2000         5
  16.2500         7
  16.3000         9
  16.3500         8
  16.4000         9
  16.4500         9
  16.5000         9
  16.5500        10
  16.6000        13
  16.6500        10
  16.7000        11
  16.7500         8
  16.8000        14
  16.8500         7
  16.9000         9
  16.9500         4
  17.0000         8
  17.0500         7
  17.1000         7
  17.1500         7
  17.2000        12
  17.2500        10
  17.3000         9
  17.3500         7
  17.4000         8
  17.4500         9
  17.5000        10
  17.5500         8
  17.6000        15
  17.6500         8
  17.7000        16
  17.7500        10
  17.8000         8
  17.8500         2
  17.9000        10
  17.9500         8
  18.0000         9
  18.0500         6
  18.1000         7
  18.1500         9
  18.2000        10
  18.2500         5
  18.3000         8
  18.3500         5
  18.4000        10
  18.4500         6
  18.5000         9
  18.5500         4
  18.6000         5
  18.6500         4
  18.7000         8
  18.7500         9
  18.8000         6
  18.8500        12
  18.9000         7
  18.9500         7
  19.0000         7
  19.0500         9
  19.1000        11
  19.1500         8
  19.2000         9
  19.2500         8
  19.3000         3
  19.3500        13
  19.4000         9
  19.4500         9
  19.5000         6
  19.5500        10
  19.6000         7
  19.6500        12
  19.7000         7
  19.7500         8
  19.8000         6
  19.8500         8
  19.9000         4
  19.9500         8
  20.0000         4
  20.0500        11
  20.1000        12
  20.1500        10
  20.2000        10
  20.2500        13
  20.3000         8
  20.3500         4
  20.4000        11
  20.4500         6
  20.5000         4
  20.5500         4
  20.6000         6
  20.6500         7
  20.7000         7
  20.7500         6
  20.8000         7
  20.8500         4
  20.9000         6
  20.9500        10
  21.0000        10
  21.0500         7
  21.1000         4
  21.1500         7
  21.2000         9
  21.2500        13
  21.3000         7
  21.3500         9
  21.4000         2
  21.4500         5
  21.5000         7
  21.5500        13
  21.6000         5
  21.6500         4
  21.7000        12
  21.7500         7
  21.8000         4
  21.8500         1
  21.9000         9
  21.9500         4
  22.0000        15
  22.0500         6
  22.1000         9
  22.1500         8
  22.2000         6
  22.2500         4
  22.3000         4
  22.3500        14
  22.4000         2
  22.4500         8
  22.5000         9
  22.5500         4
  22.6000         5
  22.6500         7
  22.7000         6
  22.7500        10
  22.8000         3
  22.8500         6
  22.9000         4
  22.9500         5
  23.0000         8
  23.0500         9
  23.1000        13
  23.1500         4
  23.2000         7
  23.2500         8
  23.3000        12
  23.3500         6
  23.4000         6
  23.4500        13
  23.5000         8
  23.5500         9
  23.6000         8
  23.6500        10
  23.7000         6
  23.7500         6
  23.8000         8
  23.8500         2
  23.9000         6
  23.9500         3
  24.0000         7
  24.0500        12
  24.1000         9
  24.1500        11
  24.2000        14
  24.2500         9
  24.3000         4
  24.3500        10
  24.4000         5
  24.4500         3
  24.5000         9
  24.5500        12
  24.6000         8
  24.6500         6
  24.7000        11
  24.7500         6
  24.8000         6
  24.8500         7
  24.9000         7
  24.9500         2
  25.0000         7
  25.0500         6
  25.1000         6
  25.1500         8
  25.2000         6
  25.2500         3
  25.3000         5
  25.3500         6
  25.4000         5
  25.4500         4
  25.5000        11
  25.5500         6
  25.6000         4
  25.6500         4
  25.7000        12
  25.7500         9
  25.8000        11
  25.8500         9
  25.9000         5
  25.9500         8
  26.0000        11
  26.0500         6
  26.1000         6
  26.1500         7
  26.2000         9
  26.2500        10
  26.3000         7
  26.3500         5
  26.4000        12
  26.4500         7
  26.5000         5
  26.5500        10
  26.6000         4
  26.6500         6
  26.7000         7
  26.7500        11
  26.8000         5
  26.8500        10
  26.9000         9
  26.9500         2
  27.0000        10
  27.0500         8
  27.1000         5
  27.1500        11
  27.2000         8
  27.2500         7
  27.3000         5
  27.3500         8
  27.4000        11
  27.4500         3
  27.5000         5
  27.5500        11
  27.6000         6
  27.6500        10
  27.7000         9
  27.7500         6
  27.8000         7
  27.8500         9
  27.9000         5
  27.9500         3
  28.0000         5
  28.0500         7
  28.1000         6
  28.1500         7
  28.2000        12
  28.2500        10
  28.3000         6
  28.3500         7
  28.4000         5
  28.4500         4
  28.5000         5
  28.5500         7
  28.6000         3
  28.6500         5
  28.7000         9
  28.7500         7
  28.8000         6
  28.8500         6
  28.9000        11
  28.9500         9
  29.0000         9
  29.0500         8
  29.1000        11
  29.1500         9
  29.2000         6
  29.2500         9
  29.3000        10
  29.3500        11
  29.4000         7
  29.4500         3
  29.5000         5
  29.5500         7
  29.6000        11
  29.6500         7
  29.7000         4
  29.7500         8
  29.8000         9
  29.8500        15
  29.9000         9
  29.9500         9
  30.0000         3
  30.0500         8
  30.1000         6
  30.1500         9
  30.2000         5
  30.2500         7
  30.3000         4
  30.3500         5
  30.4000         8
  30.4500         9
  30.5000        10
  30.5500         6
  30.6000         6
  30.6500         9
  30.7000         7
  30.7500        12
  30.8000         9
  30.8500         7
  30.9000         8
  30.9500         5
  31.0000         9
  31.0500         5
  31.1000         5
  31.1500         6
  31.2000         4
  31.2500         4
  31.3000         4
  31.3500         7
  31.4000         7
  31.4500         7
  31.5000         8
  31.5500         5
  31.6000         8
  31.6500         2
  31.7000        11
  31.7500         8
  31.8000         7
  31.8500        13
  31.9000         5
  31.9500         8
  32.0000        11
  32.0500         9
  32.1000         6
  32.1500        12
  32.2000         9
  32.2500         9
  32.3000         1
  32.3500         5
  32.4000         7
  32.4500         3
  32.5000         7
  32.5500        11
  32.6000        13
  32.6500         7
  32.7000         5
  32.7500         6
  32.8000         4
  32.8500        13
  32.9000         9
  32.9500        12
  33.0000         7
  33.0500         7
  33.1000         6
  33.1500         3
  33.2000         8
  33.2500        12
  33.3000         7
  33.3500         8
  33.4000         8
  33.4500         9
  33.5000         8
  33.5500         5
  33.6000         7
  33.6500         8
  33.7000         9
  33.7500         4
  33.8000         6
  33.8500         9
  33.9000        12
  33.9500         6
  34.0000         7
  34.0500         4
  34.1000         5
  34.1500         7
  34.2000        13
  34.2500         5
  34.3000        11
  34.3500        13
  34.4000         3
  34.4500         8
  34.5000         8
  34.5500         6
  34.6000        12
  34.6500         6
  34.7000        10
  34.7500        13
  34.8000         7
  34.8500         7
  34.9000         3
  34.9500         7
  35.0000         4
  35.0500         9
  35.1000         5
  35.1500        11
  35.2000         6
  35.2500         8
  35.3000         8
  35.3500         7
  35.4000         8
  35.4500        10
  35.5000         8
  35.5500         5
  35.6000        10
  35.6500         7
  35.7000         6
  35.7500         5
  35.8000         9
  35.8500         7
  35.9000         8
  35.9500         3
  36.0000         4
  36.0500         4
  36.1000         5
  36.1500        11
  36.2000         6
  36.2500         7
  36.3000         5
  36.3500         4
  36.4000         5
  36.4500         5
  36.5000         9
  36.5500        11
  36.6000         8
  36.6500         9
  36.7000        12
  36.7500         5
  36.8000         3
  36.8500         6
  36.9000         8
  36.9500        11
  37.0000         7
  37.0500        11
  37.1000         6
  37.1500        14
  37.2000        14
  37.2500        12
  37.3000        11
  37.3500         7
  37.4000         9
  37.4500         9
  37.5000         9
  37.5500         8
  37.6000        11
  37.6500         6
  37.7000         9
  37.7500         9
  37.8000         7
  37.8500        13
  37.9000         7
  37.9500         4
  38.0000        10
  38.0500        13
  38.1000         9
  38.1500        11
  38.2000         9
  38.2500         6
  38.3000         9
  38.3500        12
  38.4000         8
  38.4500         5
  38.5000         6
  38.5500        14
  38.6000        11
  38.6500         6
  38.7000         9
  38.7500        10
  38.8000         8
  38.8500         8
  38.9000         4
  38.9500         5
  39.0000         7
  39.0500         8
  39.1000         4
  39.1500         6
  39.2000         5
  39.2500         6
  39.3000         7
  39.3500        11
  39.4000        13
  39.4500        11
  39.5000         4
  39.5500         9
  39.6000        10
  39.6500         7
  39.7000         8
  39.7500         5
  39.8000         8
  39.8500         7
  39.9000        11
  39.9500         9
  40.0000         7
  40.0500        13
  40.1000         5
  40.1500         6
  40.2000        15
  40.2500         4
  40.3000         8
  40.3500        18
  40.4000         6
  40.4500         4
  40.5000         7
  40.5500         7
  40.6000         6
  40.6500         7
  40.7000        11
  40.7500        10
  40.8000        17
  40.8500         8
  40.9000         5
  40.9500         5
  41.0000         8
  41.0500         8
  41.1000         5
  41.1500        11
  41.2000         9
  41.2500        14
  41.3000         9
  41.3500         6
  41.4000        11
  41.4500         6
  41.5000        12
  41.5500         5
  41.6000        12
  41.6500        11
  41.7000         9
  41.7500         7
  41.8000         6
  41.8500        12
  41.9000         8
  41.9500        13
  42.0000        12
  42.0500         9
  42.1000        13
  42.1500        11
  42.2000         9
  42.2500        13
  42.3000         9
  42.3500        16
  42.4000        10
  42.4500        11
  42.5000        10
  42.5500        15
  42.6000        15
  42.6500        24
  42.7000        19
  42.7500        14
  42.8000        12
  42.8500        16
  42.9000        21
  42.9500        19
  43.0000        24
  43.0500        24
  43.1000        21
  43.1500        34
  43.2000        29
  43.2500        24
  43.3000        27
  43.3500        45
  43.4000        46
  43.4500        54
  43.5000        54
  43.5500        71
  43.6000        79
  43.6500       110
  43.7000       142
  43.7500       241
  43.8000       337
  43.8500       428
  43.9000       612
  43.9500       752
  44.0000       937
  44.0500      1033
  44.1000       974
  44.1500       903
  44.2000       673
  44.2500       511
  44.3000       415
  44.3500       241
  44.4000       168
  44.4500       114
  44.5000        61
  44.5500        62
  44.6000        55
  44.6500        45
  44.7000        35
  44.7500        30
  44.8000        29
  44.8500        29
  44.9000        22
  44.9500        26
  45.0000        26
  45.0500        14
  45.1000        21
  45.1500        17
  45.2000        13
  45.2500        13
  45.3000        14
  45.3500        16
  45.4000        14
  45.4500        12
  45.5000        18
  45.5500        19
  45.6000        18
  45.6500        12
  45.7000        15
  45.7500        14
  45.8000        10
  45.8500        12
  45.9000        13
  45.9500         9
  46.0000        14
  46.0500         9
  46.1000        12
  46.1500        12
  46.2000         9
  46.2500        10
  46.3000        11
  46.3500        13
  46.4000         7
  46.4500        14
  46.5000        11
  46.5500        10
  46.6000        14
  46.6500        13
  46.7000         7
  46.7500        19
  46.8000         8
  46.8500        12
  46.9000         5
  46.9500        13
  47.0000         6
  47.0500        18
  47.1000        14
  47.1500        13
  47.2000         6
  47.2500        16
  47.3000        10
  47.3500         6
  47.4000         9
  47.4500        10
  47.5000         8
  47.5500        13
  47.6000        11
  47.6500         5
  47.7000         4
  47.7500         4
  47.8000        11
  47.8500         7
  47.9000        11
  47.9500        12
  48.0000         9
  48.0500         6
  48.1000        11
  48.1500         7
  48.2000         9
  48.2500        14
  48.3000        10
  48.3500         9
  48.4000         9
  48.4500         9
  48.5000        10
  48.5500        11
  48.6000        12
  48.6500        10
  48.7000        12
  48.7500        10
  48.8000         6
  48.8500        11
  48.9000        12
  48.9500        11
  49.0000         5
  49.0500        11
  49.1000        13
  49.1500        13
  49.2000         9
  49.2500         9
  49.3000         9
  49.3500        11
  49.4000        13
  49.4500        17
  49.5000        16
  49.5500        14
  49.6000         7
  49.6500         9
  49.7000        13
  49.7500         9
  49.8000        16
  49.8500         9
  49.9000        10
  49.9500        13
  50.0000         8
  50.0500        17
  50.1000        13
  50.1500        18
  50.2000        16
  50.2500        16
  50.3000        16
  50.3500        15
  50.4000        17
  50.4500        20
  50.5000        27
  50.5500        30
  50.6000        33
  50.6500        35
  50.7000        35
  50.7500        45
  50.8000        45
  50.8500        79
  50.9000       108
  50.9500       109
  51.0000       123
  51.0500       185
  51.1000       209
  51.1500       247
  51.2000       294
  51.2500       283
  51.3000       310
  51.3500       299
  51.4000       278
  51.4500       277
  51.5000       205
  51.5500       191
  51.6000       128
  51.6500       106
  51.7000        89
  51.7500        77
  51.8000        59
  51.8500        38
  51.9000        45
  51.9500        36
  52.0000        30
  52.0500        21
  52.1000        20
  52.1500        22
  52.2000        28
  52.2500        17
  52.3000        15
  52.3500        15
  52.4000        13
  52.4500        14
  52.5000        14
  52.5500        18
  52.6000        12
  52.6500        11
  52.7000        10
  52.7500        14
  52.8000        10
  52.8500        14
  52.9000        10
  52.9500         7
  53.0000         7
  53.0500         9
  53.1000         8
  53.1500         8
  53.2000         6
  53.2500         7
  53.3000        11
  53.3500         9
  53.4000        10
  53.4500        11
  53.5000         9
  53.5500        11
  53.6000        12
  53.6500         6
  53.7000         4
  53.7500         7
  53.8000         9
  53.8500         7
  53.9000        10
  53.9500         9
  54.0000         7
  54.0500         6
  54.1000        11
  54.1500        10
  54.2000         9
  54.2500        10
  54.3000        17
  54.3500         3
  54.4000        11
  54.4500        13
  54.5000        14
  54.5500         3
  54.6000         7
  54.6500        23
  54.7000        14
  54.7500        15
  54.8000         9
  54.8500         7
  54.9000         4
  54.9500         6
  55.0000         5
  55.0500        14
  55.1000         6
  55.1500        12
  55.2000         6
  55.2500         5
  55.3000        10
  55.3500         6
  55.4000         7
  55.4500         8
  55.5000         6
  55.5500        11
  55.6000        11
  55.6500         8
  55.7000         8
  55.7500         3
  55.8000         9
  55.8500        13
  55.9000        10
  55.9500         8
  56.0000         7
  56.0500         6
  56.1000         7
  56.1500         5
  56.2000        11
  56.2500         5
  56.3000         8
  56.3500        12
  56.4000         8
  56.4500         9
  56.5000         7
  56.5500        10
  56.6000         8
  56.6500         9
  56.7000         9
  56.7500         6
  56.8000         4
  56.8500         8
  56.9000         3
  56.9500        10
  57.0000         5
  57.0500         9
  57.1000         6
  57.1500        17
  57.2000         5
  57.2500        14
  57.3000         8
  57.3500        10
  57.4000        11
  57.4500         7
  57.5000        12
  57.5500         8
  57.6000         5
  57.6500         8
  57.7000         7
  57.7500         5
  57.8000         9
  57.8500         6
  57.9000         5
  57.9500        11
  58.0000         8
  58.0500         7
  58.1000        11
  58.1500         8
  58.2000         4
  58.2500         9
  58.3000         8
  58.3500         4
  58.4000         4
  58.4500         6
  58.5000         6
  58.5500         6
  58.6000        10
  58.6500         4
  58.7000         9
  58.7500         8
  58.8000         4
  58.8500        10
  58.9000        12
  58.9500         5
  59.0000        13
  59.0500         8
  59.1000         8
  59.1500        14
  59.2000        11
  59.2500         6
  59.3000        12
  59.3500        15
  59.4000         6
  59.4500         9
  59.5000         3
  59.5500         8
  59.6000         8
  59.6500         9
  59.7000        12
  59.7500        12
  59.8000         8
  59.8500         6
  59.9000         3
  59.9500         7
  60.0000         8
  60.0500        11
  60.1000         8
  60.1500         4
  60.2000         8
  60.2500        11
  60.3000         7
  60.3500         8
  60.4000        10
  60.4500         7
  60.5000        15
  60.5500         5
  60.6000         4
  60.6500         6
  60.7000         6
  60.7500        15
  60.8000        10
  60.8500         8
  60.9000        10
  60.9500         2
  61.0000        10
  61.0500         8
  61.1000         8
  61.1500        16
  61.2000        11
  61.2500         2
  61.3000         9
  61.3500         7
  61.4000         7
  61.4500         9
  61.5000        14
  61.5500         6
  61.6000         7
  61.6500         8
  61.7000         8
  61.7500         6
  61.8000         5
  61.8500         6
  61.9000        13
  61.9500         8
  62.0000         8
  62.0500         7
  62.1000         8
  62.1500         9
  62.2000        10
  62.2500         8
  62.3000         7
  62.3500        11
  62.4000         9
  62.4500         9
  62.5000        11
  62.5500         5
  62.6000        12
  62.6500         8
  62.7000        11
  62.7500         5
  62.8000         8
  62.8500        11
  62.9000         9
  62.9500         9
  63.0000         8
  63.0500        17
  63.1000        12
  63.1500         6
  63.2000         8
  63.2500         8
  63.3000        10
  63.3500         7
  63.4000         9
  63.4500         8
  63.5000        11
  63.5500         5
  63.6000         7
  63.6500         7
  63.7000         9
  63.7500         7
  63.8000         7
  63.8500         6
  63.9000         5
  63.9500        10
  64.0000        12
  64.0500        10
  64.1000         6
  64.1500         6
  64.2000        12
  64.2500        10
  64.3000         2
  64.3500         8
  64.4000         5
  64.4500         8
  64.5000        10
  64.5500         7
  64.6000         7
  64.6500         6
  64.7000         9
  64.7500         5
  64.8000         4
  64.8500         8
  64.9000         9
  64.9500         8
  65.0000        10
  65.0500         5
  65.1000         7
  65.1500         5
  65.2000        10
  65.2500        10
  65.3000        14
  65.3500         5
  65.4000         4
  65.4500         4
  65.5000        10
  65.5500         8
  65.6000         1
  65.6500        10
  65.7000         4
  65.7500        10
  65.8000         9
  65.8500        11
  65.9000         8
  65.9500         6
  66.0000         5
  66.0500         6
  66.1000         6
  66.1500        10
  66.2000        12
  66.2500         9
  66.3000         5
  66.3500         9
  66.4000         7
  66.4500         7
  66.5000        11
  66.5500        11
  66.6000        15
  66.6500         6
  66.7000        15
  66.7500         7
  66.8000         6
  66.8500         6
  66.9000         9
  66.9500         9
  67.0000         6
  67.0500         5
  67.1000         9
  67.1500         5
  67.2000         9
  67.2500         9
  67.3000         4
  67.3500         6
  67.4000         4
  67.4500        10
  67.5000         8
  67.5500         9
  67.6000         7
  67.6500         8
  67.7000         9
  67.7500         5
  67.8000         6
  67.8500        11
  67.9000        10
  67.9500         5
  68.0000         6
  68.0500         5
  68.1000         9
  68.1500         5
  68.2000         7
  68.2500         3
  68.3000        13
  68.3500         5
  68.4000         6
  68.4500         5
  68.5000         9
  68.5500         8
  68.6000        11
  68.6500         9
  68.7000        10
  68.7500        10
  68.8000        10
  68.8500         8
  68.9000         4
  68.9500         2
  69.0000        11
  69.0500         8
  69.1000        11
  69.1500        11
  69.2000         5
  69.2500         8
  69.3000         8
  69.3500         7
  69.4000         6
  69.4500         9
  69.5000         6
  69.5500         5
  69.6000         5
  69.6500         9
  69.7000        10
  69.7500         8
  69.8000        10
  69.8500        12
  69.9000         9
  69.9500         6
  70.0000         8
  70.0500         9
  70.1000         8
  70.1500         7
  70.2000         6
  70.2500        11
  70.3000         5
  70.3500         6
  70.4000         6
  70.4500        10
  70.5000        11
  70.5500        13
  70.6000         3
  70.6500         7
  70.7000         6
  70.7500         9
  70.8000         7
  70.8500         9
  70.9000         6
  70.9500        10
  71.0000         8
  71.0500         7
  71.1000         6
  71.1500         5
  71.2000         3
  71.2500         9
  71.3000         6
  71.3500         9
  71.4000         8
  71.4500         6
  71.5000         8
  71.5500         8
  71.6000        14
  71.6500        11
  71.7000         9
  71.7500         8
  71.8000         7
  71.8500         9
  71.9000         3
  71.9500         9
  72.0000         6
  72.0500         7
  72.1000        13
  72.1500        10
  72.2000         6
  72.2500         8
  72.3000         9
  72.3500         8
  72.4000         7
  72.4500         8
  72.5000         8
  72.5500        13
  72.6000         8
  72.6500        14
  72.7000         4
  72.7500        12
  72.8000        10
  72.8500         4
  72.9000         8
  72.9500        15
  73.0000        11
  73.0500         8
  73.1000         7
  73.1500         5
  73.2000        12
  73.2500         6
  73.3000         6
  73.3500        17
  73.4000         9
  73.4500        10
  73.5000         9
  73.5500         9
  73.6000        11
  73.6500        10
  73.7000         8
  73.7500        11
  73.8000        10
  73.8500         5
  73.9000        11
  73.9500         8
  74.0000        13
  74.0500        12
  74.1000        12
  74.1500        16
  74.2000         9
  74.2500        11
  74.3000        14
  74.3500        14
  74.4000        12
  74.4500        10
  74.5000        14
  74.5500        21
  74.6000        18
  74.6500        22
  74.7000        22
  74.7500        27
  74.8000        27
  74.8500        27
  74.9000        32
  74.9500        45
  75.0000        36
  75.0500        37
  75.1000        86
  75.1500        88
  75.2000        81
  75.2500       112
  75.3000       109
  75.3500       111
  75.4000       108
  75.4500       128
  75.5000       119
  75.5500       126
  75.6000       128
  75.6500       104
  75.7000       101
  75.7500        83
  75.8000        83
  75.8500        86
  75.9000        47
  75.9500        48
  76.0000        28
  76.0500        35
  76.1000        32
  76.1500        16
  76.2000        22
  76.2500        16
  76.3000        19
  76.3500        23
  76.4000        13
  76.4500        11
  76.5000        19
  76.5500        13
  76.6000        15
  76.6500        10
  76.7000        13
  76.7500        10
  76.8000        13
  76.8500         7
  76.9000        11
  76.9500         8
  77.0000        12
  77.0500        10
  77.1000        14
  77.1500         9
  77.2000         8
  77.2500        11
  77.3000        11
  77.3500        13
  77.4000         9
  77.4500         5
  77.5000        11
  77.5500        14
  77.6000         9
  77.6500         9
  77.7000        12
  77.7500        12
  77.8000        12
  77.8500        14
  77.9000        12
  77.9500         5
  78.0000         9
  78.0500         7
  78.1000        12
  78.1500         9
  78.2000         6
  78.2500        12
  78.3000        14
  78.3500        13
  78.4000        12
  78.4500         9
  78.5000        14
  78.5500        13
  78.6000        11
  78.6500         9
  78.7000        14
  78.7500         4
  78.8000        13
  78.8500        14
  78.9000         6
  78.9500         7
  79.0000         9
  79.0500         9
  79.1000         9
  79.1500        14
  79.2000        10
  79.2500        11
  79.3000         8
  79.3500        10
  79.4000        10
  79.4500        15
  79.5000         7
  79.5500         6
  79.6000        13
  79.6500         6
  79.7000        12
  79.7500         9
  79.8000         7
  79.8500        12
  79.9000         9
  79.9500        12
  80.0000        13
  80.0500         5
  80.1000        14
  80.1500         7
  80.2000         5
  80.2500         7
  80.3000        12
  80.3500         5
  80.4000         4
  80.4500         6
  80.5000        12
  80.5500         6
  80.6000         5
  80.6500        12
  80.7000         7
  80.7500         9
  80.8000         7
  80.8500         8
  80.9000         9
  80.9500         7
  81.0000        11
  81.0500        13
  81.1000        13
  81.1500         9
  81.2000         5
  81.2500         6
  81.3000         9
  81.3500         8
  81.4000        22
  81.4500        10
  81.5000        10
  81.5500         8
  81.6000         8
  81.6500         6
  81.7000         9
  81.7500         9
  81.8000        14
  81.8500         6
  81.9000        10
  81.9500        12
  82.0000         4
  82.0500         6
  82.1000         9
  82.1500         9
  82.2000         9
  82.2500        11
  82.3000         7
  82.3500        11
  82.4000         9
  82.4500        10
  82.5000        11
  82.5500         6
  82.6000         6
  82.6500         9
  82.7000        11
  82.7500         9
  82.8000         5
  82.8500         7
  82.9000        11
  82.9500         5
  83.0000         4
  83.0500        12
  83.1000         9
  83.1500         7
  83.2000        11
  83.2500         4
  83.3000        10
  83.3500         9
  83.4000        12
  83.4500         2
  83.5000        11
  83.5500        13
  83.6000        12
  83.6500        12
  83.7000         9
  83.7500         8
  83.8000         7
  83.8500        10
  83.9000         6
  83.9500         9
  84.0000         9
  84.0500         7
  84.1000         9
  84.1500         7
  84.2000        10
  84.2500         9
  84.3000        13
  84.3500         7
  84.4000         9
  84.4500         7
  84.5000         9
  84.5500         5
  84.6000         5
  84.6500         7
  84.7000         9
  84.7500        10
  84.8000         6
  84.8500        11
  84.9000         4
  84.9500         3
  85.0000         3
  85.0500         9
  85.1000        15
  85.1500        10
  85.2000        16
  85.2500        11
  85.3000         5
  85.3500        11
  85.4000        11
  85.4500         8
  85.5000        11
  85.5500         5
  85.6000         5
  85.6500        10
  85.7000        12
  85.7500        10
  85.8000         4
  85.8500         9
  85.9000        10
  85.9500        10
  86.0000         7
  86.0500        11
  86.1000         9
  86.1500        10
  86.2000         8
  86.2500        10
  86.3000        14
  86.3500         8
  86.4000         6
  86.4500         4
  86.5000         7
  86.5500         3
  86.6000         8
  86.6500         8
  86.7000        11
  86.7500         6
  86.8000        14
  86.8500         9
  86.9000        10
  86.9500        12
  87.0000        11
  87.0500         8
  87.1000         8
  87.1500         4
  87.2000        11
  87.2500         8
  87.3000         5
  87.3500         7
  87.4000         8
  87.4500         6
  87.5000         7
  87.5500         5
  87.6000        12
  87.6500         5
  87.7000        10
  87.7500        11
  87.8000        11
  87.8500        10
  87.9000        12
  87.9500         8
  88.0000         8
  88.0500         5
  88.1000        12
  88.1500        12
  88.2000        10
  88.2500        15
  88.3000        12
  88.3500        16
  88.4000        14
  88.4500        11
  88.5000        13
  88.5500         8
  88.6000        11
  88.6500         6
  88.7000        13
  88.7500         9
  88.8000         7
  88.8500        13
  88.9000         8
  88.9500        14
  89.0000         9
  89.0500         9
  89.1000         5
  89.1500        14
  89.2000        11
  89.2500         9
  89.3000         7
  89.3500         7
  89.4000         8
  89.4500         7
  89.5000         7
  89.5500        13
  89.6000        15
  89.6500        15
  89.7000        13
  89.7500        18
  89.8000        15
  89.8500         9
  89.9000         9
  89.9500        12
  90.0000         8
  90.0500        12
  90.1000        11
  90.1500        10
  90.2000        13
  90.2500        10
  90.3000        12
  90.3500        20
  90.4000        23
  90.4500        14
  90.5000        14
  90.5500        25
  90.6000        23
  90.6500        21
  90.7000        19
  90.7500        21
  90.8000        28
  90.8500        27
  90.9000        29
  90.9500        34
  91.0000        35
  91.0500        47
  91.1000        47
  91.1500        44
  91.2000        53
  91.2500        63
  91.3000        71
  91.3500        68
  91.4000        87
  91.4500        79
  91.5000        91
  91.5500        87
  91.6000       118
  91.6500       121
  91.7000       112
  91.7500       108
  91.8000       131
  91.8500       106
  91.9000        87
  91.9500        86
  92.0000        84
  92.0500        81
  92.1000        86
  92.1500        67
  92.2000        53
  92.2500        64
  92.3000        38
  92.3500        35
  92.4000        32
  92.4500        31
  92.5000        27
  92.5500        34
  92.6000        31
  92.6500        18
  92.7000        28
  92.7500        24
  92.8000         9
  92.8500        25
  92.9000         9
  92.9500        14
  93.0000        17
  93.0500        14
  93.1000        13
  93.1500        14
  93.2000        12
  93.2500        13
  93.3000         7
  93.3500        12
  93.4000         8
  93.4500        11
  93.5000         8
  93.5500        11
  93.6000         9
  93.6500        12
  93.7000        12
  93.7500        16
  93.8000         8
  93.8500         5
  93.9000         9
  93.9500        10
  94.0000        11
  94.0500        16
  94.1000        10
  94.1500         6
  94.2000         6
  94.2500        11
  94.3000         7
  94.3500         7
  94.4000        13
  94.4500        10
  94.5000        10
  94.5500         9
  94.6000        12
  94.6500         8
  94.7000         8
  94.7500         6
  94.8000        11
  94.8500         9
  94.9000         8
  94.9500        14
  95.0000         8
  95.0500         9
  95.1000        12
  95.1500         8
  95.2000        14
  95.2500        12
  95.3000        10
  95.3500        11
  95.4000         8
  95.4500        11
  95.5000         8
  95.5500         6
  95.6000         9
  95.6500        12
  95.7000         7
  95.7500        15
  95.8000         7
  95.8500        12
  95.9000        11
  95.9500        10
  96.0000        10
  96.0500         8
  96.1000        11
  96.1500        11
  96.2000         9
  96.2500        14
  96.3000        14
  96.3500        27
  96.4000        25
  96.4500        15
  96.5000        18
  96.5500        15
  96.6000        16
  96.6500        26
  96.7000        27
  96.7500        33
  96.8000        31
  96.8500        35
  96.9000        29
  96.9500        36
  97.0000        35
  97.0500        41
  97.1000        46
  97.1500        46
  97.2000        38
  97.2500        31
  97.3000        50
  97.3500        35
  97.4000        33
  97.4500        34
  97.5000        35
  97.5500        37
  97.6000        24
  97.6500        23
  97.7000        18
  97.7500        17
  97.8000        15
  97.8500        11
  97.9000        16
  97.9500        12
  98.0000        11
  98.0500        13
  98.1000        15
  98.1500        13
  98.2000        11
  98.2500        12
  98.3000        15
  98.3500         5
  98.4000         7
  98.4500         8
  98.5000        14
  98.5500        13
  98.6000         9
  98.6500         8
  98.7000        15
  98.7500         7
  98.8000         9
  98.8500        12
  98.9000        11
  98.9500         4
  99.0000        12
  99.0500        10
  99.1000         7
  99.1500        16
  99.2000         7
  99.2500         8
  99.3000         8
  99.3500         6
  99.4000        11
  99.4500         7
  99.5000         6
  99.5500        10
  99.6000         9
  99.6500         9
  99.7000         8
  99.7500         6
  99.8000         8
  99.8500        13
  99.9000         8
  99.9500         7
 100.0000        11
 100.0500        16
 100.1000         7
 100.1500         5
 100.2000         9
 100.2500         8
 100.3000         5
 100.3500         7
 100.4000         6
 100.4500         7
 100.5000         8
 100.5500         3
 100.6000        12
 100.6500         5
 100.7000         6
 100.7500        10
 100.8000         8
 100.8500        12
 100.9000         8
 100.9500         4
 101.0000         4
 101.0500         8
 101.1000        18
 101.1500        11
 101.2000         4
 101.2500         7
 101.3000         8
 101.3500         5
 101.4000         9
 101.4500         3
 101.5000        11
 101.5500         8
 101.6000        10
 101.6500         5
 101.7000         7
 101.7500        10
 101.8000         7
 101.8500         5
 101.9000        10
 101.9500         6
 102.0000         9
 102.0500         7
 102.1000        10
 102.1500         8
 102.2000         7
 102.2500         5
 102.3000         7
 102.3500        12
 102.4000        11
 102.4500         6
 102.5000        11
 102.5500        10
 102.6000         6
 102.6500        14
 102.7000        11
 102.7500        11
 102.8000         3
 102.8500         7
 102.9000         7
 102.9500         4
 103.0000        10
 103.0500         9
 103.1000         9
 103.1500        12
 103.2000        11
 103.2500         9
 103.3000         7
 103.3500         6
 103.4000         4
 103.4500        11
 103.5000        12
 103.5500         6
 103.6000         5
 103.6500         6
 103.7000        11
 103.7500         8
 103.8000         5
 103.8500        11
 103.9000        14
 103.9500         9
 104.0000        14
 104.0500         9
 104.1000        11
 104.1500        10
 104.2000         6
 104.2500        11
 104.3000        10
 104.3500        16
 104.4000         4
 104.4500         7
 104.5000        14
 104.5500         9
 104.6000         9
 104.6500         6
 104.7000         9
 104.7500        14
 104.8000         3
 104.8500        10
 104.9000         5
 104.9500         4
 105.0000        11
 105.0500         7
 105.1000         9
 105.1500         8
 105.2000        11
 105.2500         6
 105.3000         5
 105.3500        11
 105.4000         7
 105.4500         9
 105.5000        13
 105.5500        10
 105.6000         5
 105.6500         7
 105.7000         4
 105.7500         7
 105.8000         3
 105.8500         8
 105.9000         9
 105.9500        11
 106.0000        11
 106.0500         9
 106.1000        11
 106.1500        11
 106.2000        12
 106.2500        12
 106.3000        15
 106.3500        10
 106.4000         7
 106.4500        12
 106.5000        10
 106.5500         6
 106.6000        12
 106.6500         9
 106.7000         3
 106.7500         9
 106.8000        15
 106.8500        11
 106.9000         7
 106.9500         6
 107.0000         5
 107.0500         9
 107.1000         4
 107.1500         9
 107.2000         6
 107.2500         4
 107.3000        10
 107.3500         9
 107.4000        11
 107.4500         6
 107.5000         9
 107.5500        14
 107.6000         7
 107.6500        10
 107.7000         4
 107.7500         6
 107.8000         9
 107.8500         6
 107.9000        10
 107.9500         5
 108.0000         4
 108.0500        10
 108.1000        12
 108.1500         8
 108.2000        10
 108.2500        10
 108.3000         8
 108.3500         6
 108.4000        12
 108.4500        13
 108.5000        10
 108.5500        11
 108.6000        11
 108.6500         4
 108.7000         7
 108.7500         5
 108.8000         8
 108.8500         8
 108.9000         9
 108.9500         8
 109.0000         5
 109.0500         8
 109.1000        10
 109.1500        13
 109.2000         8
 109.2500         5
 109.3000         6
 109.3500        14
 109.4000        12
 109.4500        12
 109.5000         4
 109.5500         9
 109.6000         9
 109.6500        18
 109.7000         9
 109.7500        16
 109.8000        11
 109.8500         5
 109.9000         4
 109.9500        11
 110.0000         5
