  10.0000         8
  10.0500         6
  10.1000        12
  10.1500         7
  10.2000        10
  10.2500         9
  10.3000         9
  10.3500        10
  10.4000        11
  10.4500         7
  10.5000         8
  10.5500        14
  10.6000         9
  10.6500        14
  10.7000        10
  10.7500         6
  10.8000        10
  10.8500         9
  10.9000        11
  10.9500         8
  11.0000        11
  11.0500         9
  11.1000         8
  11.1500         6
  11.2000        12
  11.2500        12
  11.3000         8
  11.3500         4
  11.4000         9
  11.4500         6
  11.5000        10
  11.5500         8
  11.6000         8
  11.6500         8
  11.7000        10
  11.7500         7
  11.8000         7
  11.8500         8
  11.9000         9
  11.9500        13
  12.0000         8
  12.0500         7
  12.1000         9
  12.1500        11
  12.2000         7
  12.2500         7
  12.3000         6
  12.3500        12
  12.4000        16
  12.4500         6
  12.5000         8
  12.5500        12
  12.6000         8
  12.6500         4
  12.7000         8
  12.7500         6
  12.8000        12
  12.8500         2
  12.9000         9
  12.9500         5
  13.0000         6
  13.0500         8
  13.1000         9
  13.1500        10
  13.2000        15
  13.2500         8
  13.3000         4
  13.3500         7
  13.4000        13
  13.4500         8
  13.5000         7
  13.5500         6
  13.6000         9
  13.6500         4
  13.7000        10
  13.7500         4
  13.8000         9
  13.8500         7
  13.9000        12
  13.9500         6
  14.0000        10
  14.0500         7
  14.1000         7
  14.1500         7
  14.2000         3
  14.2500         3
  14.3000         8
  14.3500         4
  14.4000        11
  14.4500         9
  14.5000         6
  14.5500         3
  14.6000        14
  14.6500        11
  14.7000        10
  14.7500        11
  14.8000         9
  14.8500         5
  14.9000         6
  14.9500        12
  15.0000         7
  15.0500         4
  15.1000         5
  15.1500         4
  15.2000         6
  15.2500        12
  15.3000         9
  15.3500         7
  15.4000         5
  15.4500         5
  15.5000         7
  15.5500        13
  15.6000        12
  15.6500         4
  15.7000        15
  15.7500         6
  15.8000         8
  15.8500         8
  15.9000         9
  15.9500         4
  16.0000         6
  16.0500         3
  16.1000         4
  16.1500         9
  16.2000         7
  16.2500         4
  16.3000         5
  16.3500         3
  16.4000         4
  16.4500         8
  16.5000         7
  16.5500         3
  16.6000         6
  16.6500         7
  16.7000        11
  16.7500         7
  16.8000        11
  16.8500         7
  16.9000         9
  16.9500         9
  17.0000         4
  17.0500        10
  17.1000         4
  17.1500         4
  17.2000         8
  17.2500         8
  17.3000         7
  17.3500         6
  17.4000         8
  17.4500         5
  17.5000         5
  17.5500        15
  17.6000         7
  17.6500         7
  17.7000         5
  17.7500         9
  17.8000         2
  17.8500        12
  17.9000         7
  17.9500         7
  18.0000         8
  18.0500         4
  18.1000         7
  18.1500         8
  18.2000         3
  18.2500         7
  18.3000         6
  18.3500         4
  18.4000         6
  18.4500         8
  18.5000         6
  18.5500         7
  18.6000         4
  18.6500         7
  18.7000        12
  18.7500         8
  18.8000         9
  18.8500        10
  18.9000        10
  18.9500        10
  19.0000         4
  19.0500         5
  19.1000         7
  19.1500         8
  19.2000         3
  19.2500         4
  19.3000         4
  19.3500         2
  19.4000         9
  19.4500         6
  19.5000         7
  19.5500         5
  19.6000         6
  19.6500         3
  19.7000         8
  19.7500         5
  19.8000         4
  19.8500         2
  19.9000        13
  19.9500         5
  20.0000         7
  20.0500         4
  20.1000         4
  20.1500         9
  20.2000         6
  20.2500         5
  20.3000         5
  20.3500         7
  20.4000        10
  20.4500         8
  20.5000         6
  20.5500         7
  20.6000         4
  20.6500         7
  20.7000         6
  20.7500         8
  20.8000         4
  20.8500         9
  20.9000         7
  20.9500         6
  21.0000         5
  21.0500         3
  21.1000        11
  21.1500         5
  21.2000         5
  21.2500         9
  21.3000         8
  21.3500         9
  21.4000         4
  21.4500         3
  21.5000         7
  21.5500         4
  21.6000         7
  21.6500         1
  21.7000         6
  21.7500         9
  21.8000         7
  21.8500         6
  21.9000         5
  21.9500         2
  22.0000         4
  22.0500         6
  22.1000         9
  22.1500         7
  22.2000         6
  22.2500         7
  22.3000         7
  22.3500        10
  22.4000         8
  22.4500         7
  22.5000         5
  22.5500        11
  22.6000         9
  22.6500         7
  22.7000         7
  22.7500         8
  22.8000         1
  22.8500         7
  22.9000         6
  22.9500         6
  23.0000         5
  23.0500         8
  23.1000         4
  23.1500         5
  23.2000         3
  23.2500         6
  23.3000         6
  23.3500         1
  23.4000         4
  23.4500         7
  23.5000         5
  23.5500         3
  23.6000         3
  23.6500         8
  23.7000         3
  23.7500         7
  23.8000        11
  23.8500         6
  23.9000         8
  23.9500         6
  24.0000         6
  24.0500         4
  24.1000         7
  24.1500         9
  24.2000         3
  24.2500         6
  24.3000         6
  24.3500         6
  24.4000         2
  24.4500         4
  24.5000         2
  24.5500         8
  24.6000         3
  24.6500         7
  24.7000         7
  24.7500         9
  24.8000         5
  24.8500         5
  24.9000         6
  24.9500         4
  25.0000         4
  25.0500         7
  25.1000         9
  25.1500         3
  25.2000         6
  25.2500         4
  25.3000         5
  25.3500         7
  25.4000         6
  25.4500         7
  25.5000         4
  25.5500         4
  25.6000         6
  25.6500         3
  25.7000         6
  25.7500         2
  25.8000         2
  25.8500        10
  25.9000         5
  25.9500         8
  26.0000         3
  26.0500         3
  26.1000         3
  26.1500         7
  26.2000         7
  26.2500         3
  26.3000         8
  26.3500         7
  26.4000         5
  26.4500         6
  26.5000         4
  26.5500         4
  26.6000         1
  26.6500         4
  26.7000         0
  26.7500         2
  26.8000         4
  26.8500         5
  26.9000         9
  26.9500         9
  27.0000         8
  27.0500         6
  27.1000         8
  27.1500         4
  27.2000         6
  27.2500         6
  27.3000         5
  27.3500         8
  27.4000         4
  27.4500         5
  27.5000         4
  27.5500         7
  27.6000         7
  27.6500         4
  27.7000         2
  27.7500         2
  27.8000         8
  27.8500         4
  27.9000         3
  27.9500         3
  28.0000         8
  28.0500         3
  28.1000         8
  28.1500         0
  28.2000         5
  28.2500        10
  28.3000         5
  28.3500         5
  28.4000         7
  28.4500         7
  28.5000         5
  28.5500         6
  28.6000         3
  28.6500         5
  28.7000         4
  28.7500         4
  28.8000         5
  28.8500         7
  28.9000         2
  28.9500         4
  29.0000         5
  29.0500         5
  29.1000         6
  29.1500         8
  29.2000         9
  29.2500         6
  29.3000         2
  29.3500        11
  29.4000         4
  29.4500         7
  29.5000         9
  29.5500         5
  29.6000         7
  29.6500         7
  29.7000         5
  29.7500         7
  29.8000         8
  29.8500         7
  29.9000         2
  29.9500         7
  30.0000         9
  30.0500         6
  30.1000         5
  30.1500         6
  30.2000         2
  30.2500         9
  30.3000         5
  30.3500         5
  30.4000         5
  30.4500         2
  30.5000         4
  30.5500         3
  30.6000         3
  30.6500         4
  30.7000         6
  30.7500         7
  30.8000         5
  30.8500         2
  30.9000         2
  30.9500         8
  31.0000         9
  31.0500         6
  31.1000         7
  31.1500         7
  31.2000         2
  31.2500         2
  31.3000         4
  31.3500         5
  31.4000         5
  31.4500         7
  31.5000         9
  31.5500         3
  31.6000         7
  31.6500         9
  31.7000         8
  31.7500         6
  31.8000         6
  31.8500         3
  31.9000         8
  31.9500         6
  32.0000         2
  32.0500         7
  32.1000         6
  32.1500         2
  32.2000         5
  32.2500         8
  32.3000         5
  32.3500         9
  32.4000         6
  32.4500        11
  32.5000         8
  32.5500        10
  32.6000         7
  32.6500         4
  32.7000         4
  32.7500         8
  32.8000         8
  32.8500         8
  32.9000         2
  32.9500         5
  33.0000         8
  33.0500         7
  33.1000         5
  33.1500         9
  33.2000         3
  33.2500         6
  33.3000         6
  33.3500         7
  33.4000         4
  33.4500         4
  33.5000         4
  33.5500         2
  33.6000         9
  33.6500        12
  33.7000         5
  33.7500         2
  33.8000        11
  33.8500         9
  33.9000        10
  33.9500         6
  34.0000         7
  34.0500         7
  34.1000         8
  34.1500         2
  34.2000         7
  34.2500         4
  34.3000         2
  34.3500         5
  34.4000         6
  34.4500         7
  34.5000         6
  34.5500         5
  34.6000         9
  34.6500         9
  34.7000         6
  34.7500         5
  34.8000        11
  34.8500         3
  34.9000         5
  34.9500         3
  35.0000         2
  35.0500         4
  35.1000         4
  35.1500         9
  35.2000         8
  35.2500         9
  35.3000         5
  35.3500         9
  35.4000         9
  35.4500         7
  35.5000         6
  35.5500         3
  35.6000         8
  35.6500         8
  35.7000        12
  35.7500         6
  35.8000         3
  35.8500         3
  35.9000         8
  35.9500         2
  36.0000        10
  36.0500         5
  36.1000        10
  36.1500         3
  36.2000         4
  36.2500         4
  36.3000         5
  36.3500         7
  36.4000         5
  36.4500         8
  36.5000         1
  36.5500         6
  36.6000         5
  36.6500         4
  36.7000         5
  36.7500         4
  36.8000         7
  36.8500         6
  36.9000         6
  36.9500         3
  37.0000         5
  37.0500        13
  37.1000        10
  37.1500         7
  37.2000         6
  37.2500         9
  37.3000         7
  37.3500        20
  37.4000        15
  37.4500        12
  37.5000         7
  37.5500         8
  37.6000         9
  37.6500         4
  37.7000         3
  37.7500         7
  37.8000         8
  37.8500         6
  37.9000        10
  37.9500        12
  38.0000         4
  38.0500        10
  38.1000         6
  38.1500         5
  38.2000         5
  38.2500        11
  38.3000         5
  38.3500        10
  38.4000         2
  38.4500         7
  38.5000         7
  38.5500         9
  38.6000        10
  38.6500         8
  38.7000         6
  38.7500         3
  38.8000         2
  38.8500         9
  38.9000         5
  38.9500         4
  39.0000         5
  39.0500         6
  39.1000         5
  39.1500         8
  39.2000        11
  39.2500        10
  39.3000         8
  39.3500        13
  39.4000         9
  39.4500         2
  39.5000         6
  39.5500         8
  39.6000         8
  39.6500         8
  39.7000        10
  39.7500         5
  39.8000         5
  39.8500         8
  39.9000         4
  39.9500        11
  40.0000        14
  40.0500         9
  40.1000         4
  40.1500        12
  40.2000         6
  40.2500         4
  40.3000        12
  40.3500         5
  40.4000         7
  40.4500         2
  40.5000        10
  40.5500         9
  40.6000         7
  40.6500         9
  40.7000         7
  40.7500         9
  40.8000         8
  40.8500         7
  40.9000         8
  40.9500         4
  41.0000         7
  41.0500         2
  41.1000         8
  41.1500         7
  41.2000         7
  41.2500         7
  41.3000         7
  41.3500         5
  41.4000         7
  41.4500         4
  41.5000        13
  41.5500         9
  41.6000         4
  41.6500         9
  41.7000         6
  41.7500         6
  41.8000        13
  41.8500        11
  41.9000         9
  41.9500         7
  42.0000         9
  42.0500         6
  42.1000        17
  42.1500         8
  42.2000        10
  42.2500        16
  42.3000        19
  42.3500        11
  42.4000        18
  42.4500        16
  42.5000        17
  42.5500        23
  42.6000        22
  42.6500        21
  42.7000        16
  42.7500        28
  42.8000        26
  42.8500        29
  42.9000        31
  42.9500        34
  43.0000        31
  43.0500        41
  43.1000        53
  43.1500        53
  43.2000        47
  43.2500        64
  43.3000        97
  43.3500       111
  43.4000       154
  43.4500       218
  43.5000       336
  43.5500       552
  43.6000       744
  43.6500      1010
  43.7000      1166
  43.7500      1272
  43.8000      1023
  43.8500       821
  43.9000       621
  43.9500       425
  44.0000       256
  44.0500       167
  44.1000       110
  44.1500        87
  44.2000        59
  44.2500        46
  44.3000        46
  44.3500        23
  44.4000        29
  44.4500        39
  44.5000        35
  44.5500        16
  44.6000        20
  44.6500        21
  44.7000        22
  44.7500        14
  44.8000        15
  44.8500        17
  44.9000        15
  44.9500        16
  45.0000        23
  45.0500        16
  45.1000        13
  45.1500        17
  45.2000        12
  45.2500        13
  45.3000        18
  45.3500         6
  45.4000         6
  45.4500        16
  45.5000         5
  45.5500         9
  45.6000        12
  45.6500         7
  45.7000        13
  45.7500        12
  45.8000        11
  45.8500        12
  45.9000         8
  45.9500        13
  46.0000         7
  46.0500         9
  46.1000         7
  46.1500        11
  46.2000         7
  46.2500        11
  46.3000         5
  46.3500         7
  46.4000        13
  46.4500         4
  46.5000         6
  46.5500        16
  46.6000         6
  46.6500         7
  46.7000        13
  46.7500         9
  46.8000         9
  46.8500        12
  46.9000         5
  46.9500        10
  47.0000         9
  47.0500        10
  47.1000         7
  47.1500         6
  47.2000         9
  47.2500        10
  47.3000        11
  47.3500         8
  47.4000         8
  47.4500        11
  47.5000         3
  47.5500        11
  47.6000         7
  47.6500         5
  47.7000        11
  47.7500         6
  47.8000        11
  47.8500         5
  47.9000         3
  47.9500         7
  48.0000         7
  48.0500         5
  48.1000         4
  48.1500        16
  48.2000         1
  48.2500         9
  48.3000        10
  48.3500         5
  48.4000         5
  48.4500         3
  48.5000         6
  48.5500         3
  48.6000        10
  48.6500         8
  48.7000        11
  48.7500         7
  48.8000         7
  48.8500         9
  48.9000         7
  48.9500         8
  49.0000         8
  49.0500        16
  49.1000        10
  49.1500        13
  49.2000         9
  49.2500        22
  49.3000        12
  49.3500        14
  49.4000        15
  49.4500         8
  49.5000        11
  49.5500        13
  49.6000         9
  49.6500        15
  49.7000        13
  49.7500        16
  49.8000        11
  49.8500        20
  49.9000        18
  49.9500        21
  50.0000        26
  50.0500        19
  50.1000        15
  50.1500        19
  50.2000        25
  50.2500        32
  50.3000        30
  50.3500        38
  50.4000        45
  50.4500        52
  50.5000        60
  50.5500        80
  50.6000       121
  50.6500       172
  50.7000       190
  50.7500       265
  50.8000       284
  50.8500       342
  50.9000       362
  50.9500       341
  51.0000       344
  51.0500       310
  51.1000       264
  51.1500       194
  51.2000       151
  51.2500        94
  51.3000        86
  51.3500        79
  51.4000        55
  51.4500        36
  51.5000        33
  51.5500        38
  51.6000        23
  51.6500        19
  51.7000        17
  51.7500        20
  51.8000         9
  51.8500        13
  51.9000        18
  51.9500         8
  52.0000        10
  52.0500        14
  52.1000        11
  52.1500        14
  52.2000         8
  52.2500        12
  52.3000         8
  52.3500         9
  52.4000         7
  52.4500        12
  52.5000         9
  52.5500        12
  52.6000         9
  52.6500         8
  52.7000        11
  52.7500        13
  52.8000         8
  52.8500        11
  52.9000        13
  52.9500         9
  53.0000         5
  53.0500        11
  53.1000         9
  53.1500         5
  53.2000         8
  53.2500         6
  53.3000         7
  53.3500         6
  53.4000         7
  53.4500         8
  53.5000        10
  53.5500         7
  53.6000         9
  53.6500         7
  53.7000         4
  53.7500         7
  53.8000         7
  53.8500         4
  53.9000         7
  53.9500         7
  54.0000         5
  54.0500         6
  54.1000        10
  54.1500         8
  54.2000         3
  54.2500         7
  54.3000         4
  54.3500         7
  54.4000         2
  54.4500         4
  54.5000         7
  54.5500         3
  54.6000        10
  54.6500         5
  54.7000         6
  54.7500         7
  54.8000         4
  54.8500         6
  54.9000         8
  54.9500         6
  55.0000         7
  55.0500         5
  55.1000         5
  55.1500         6
  55.2000         4
  55.2500         9
  55.3000         8
  55.3500         5
  55.4000         7
  55.4500         9
  55.5000         6
  55.5500         5
  55.6000         5
  55.6500         5
  55.7000         6
  55.7500        12
  55.8000         5
  55.8500         5
  55.9000         5
  55.9500         3
  56.0000         2
  56.0500         4
  56.1000         5
  56.1500         4
  56.2000         6
  56.2500         5
  56.3000        12
  56.3500         8
  56.4000         2
  56.4500         6
  56.5000         9
  56.5500         5
  56.6000         9
  56.6500         6
  56.7000         1
  56.7500         8
  56.8000         6
  56.8500         8
  56.9000         9
  56.9500        10
  57.0000         8
  57.0500         3
  57.1000         6
  57.1500         4
  57.2000         3
  57.2500         5
  57.3000         3
  57.3500         5
  57.4000         4
  57.4500         8
  57.5000         3
  57.5500         3
  57.6000         0
  57.6500         8
  57.7000         7
  57.7500         4
  57.8000         6
  57.8500         2
  57.9000         3
  57.9500         6
  58.0000         4
  58.0500         4
  58.1000         2
  58.1500         5
  58.2000         2
  58.2500         3
  58.3000         2
  58.3500         6
  58.4000         8
  58.4500         1
  58.5000         8
  58.5500         4
  58.6000         3
  58.6500         3
  58.7000         5
  58.7500         6
  58.8000         9
  58.8500         3
  58.9000         5
  58.9500         4
  59.0000         6
  59.0500         3
  59.1000         8
  59.1500         7
  59.2000         4
  59.2500         5
  59.3000         4
  59.3500         9
  59.4000         7
  59.4500         5
  59.5000         5
  59.5500         6
  59.6000         7
  59.6500         4
  59.7000         6
  59.7500         7
  59.8000         5
  59.8500         5
  59.9000         6
  59.9500         3
  60.0000         4
  60.0500         5
  60.1000         2
  60.1500         7
  60.2000         8
  60.2500         5
  60.3000         4
  60.3500         3
  60.4000         6
  60.4500         1
  60.5000         7
  60.5500         5
  60.6000         6
  60.6500         6
  60.7000         7
  60.7500         4
  60.8000         6
  60.8500         6
  60.9000         5
  60.9500         4
  61.0000        12
  61.0500         6
  61.1000         4
  61.1500         9
  61.2000         6
  61.2500         5
  61.3000         5
  61.3500        10
  61.4000         3
  61.4500         6
  61.5000        11
  61.5500         7
  61.6000         6
  61.6500         9
  61.7000         8
  61.7500         6
  61.8000         5
  61.8500         5
  61.9000         6
  61.9500         4
  62.0000         7
  62.0500         5
  62.1000        12
  62.1500         3
  62.2000        10
  62.2500         6
  62.3000         5
  62.3500         8
  62.4000         6
  62.4500         4
  62.5000         2
  62.5500         8
  62.6000         7
  62.6500         8
  62.7000         4
  62.7500         9
  62.8000         7
  62.8500         8
  62.9000        11
  62.9500         9
  63.0000         6
  63.0500        19
  63.1000         9
  63.1500         9
  63.2000        10
  63.2500         5
  63.3000        15
  63.3500         6
  63.4000        13
  63.4500         8
  63.5000         8
  63.5500        14
  63.6000         3
  63.6500         7
  63.7000         7
  63.7500         8
  63.8000         2
  63.8500         7
  63.9000         5
  63.9500         5
  64.0000         4
  64.0500         7
  64.1000         6
  64.1500         8
  64.2000         9
  64.2500        14
  64.3000        10
  64.3500         4
  64.4000         3
  64.4500         2
  64.5000         3
  64.5500         8
  64.6000         5
  64.6500         4
  64.7000         2
  64.7500         7
  64.8000         6
  64.8500         5
  64.9000         4
  64.9500         3
  65.0000         7
  65.0500         9
  65.1000         2
  65.1500         7
  65.2000         5
  65.2500         9
  65.3000         4
  65.3500         6
  65.4000         6
  65.4500         7
  65.5000         7
  65.5500         5
  65.6000         7
  65.6500         2
  65.7000         6
  65.7500         5
  65.8000         6
  65.8500         6
  65.9000         6
  65.9500         6
  66.0000         5
  66.0500         2
  66.1000         3
  66.1500         4
  66.2000         8
  66.2500         4
  66.3000         4
  66.3500         6
  66.4000         6
  66.4500         6
  66.5000         8
  66.5500         6
  66.6000         4
  66.6500         8
  66.7000         7
  66.7500         3
  66.8000         3
  66.8500         5
  66.9000         5
  66.9500         4
  67.0000         8
  67.0500         3
  67.1000         5
  67.1500         4
  67.2000         6
  67.2500         4
  67.3000         8
  67.3500         8
  67.4000        11
  67.4500         8
  67.5000         2
  67.5500         6
  67.6000         7
  67.6500         5
  67.7000         8
  67.7500         5
  67.8000         8
  67.8500         9
  67.9000         8
  67.9500         6
  68.0000         6
  68.0500         5
  68.1000         7
  68.1500         9
  68.2000        10
  68.2500         5
  68.3000         2
  68.3500         7
  68.4000        11
  68.4500        10
  68.5000         1
  68.5500         4
  68.6000         3
  68.6500         6
  68.7000         4
  68.7500         2
  68.8000         7
  68.8500         5
  68.9000         5
  68.9500         7
  69.0000         2
  69.0500         6
  69.1000         6
  69.1500         3
  69.2000         6
  69.2500         6
  69.3000         6
  69.3500         4
  69.4000         6
  69.4500         6
  69.5000         4
  69.5500         4
  69.6000         5
  69.6500         7
  69.7000         9
  69.7500         5
  69.8000         3
  69.8500         5
  69.9000         8
  69.9500         4
  70.0000         7
  70.0500         4
  70.1000         7
  70.1500         3
  70.2000         5
  70.2500         7
  70.3000         9
  70.3500         5
  70.4000         5
  70.4500         4
  70.5000         7
  70.5500         5
  70.6000         4
  70.6500         2
  70.7000         9
  70.7500         3
  70.8000         9
  70.8500        13
  70.9000         5
  70.9500         6
  71.0000        11
  71.0500        12
  71.1000         9
  71.1500         2
  71.2000         6
  71.2500         7
  71.3000         6
  71.3500         7
  71.4000         2
  71.4500         9
  71.5000        10
  71.5500         5
  71.6000         8
  71.6500         5
  71.7000         8
  71.7500        10
  71.8000        13
  71.8500         6
  71.9000         9
  71.9500         5
  72.0000         6
  72.0500         3
  72.1000        11
  72.1500         7
  72.2000         8
  72.2500         6
  72.3000         9
  72.3500        10
  72.4000         4
  72.4500         7
  72.5000         8
  72.5500        11
  72.6000         8
  72.6500         7
  72.7000         8
  72.7500         6
  72.8000         5
  72.8500         3
  72.9000        10
  72.9500        12
  73.0000         7
  73.0500        10
  73.1000         6
  73.1500         9
  73.2000         5
  73.2500        10
  73.3000        14
  73.3500         8
  73.4000        10
  73.4500        11
  73.5000         7
  73.5500        10
  73.6000        10
  73.6500        12
  73.7000        12
  73.7500        12
  73.8000         6
  73.8500         7
  73.9000         7
  73.9500        16
  74.0000        14
  74.0500        15
  74.1000        16
  74.1500        20
  74.2000        20
  74.2500        15
  74.3000        28
  74.3500        26
  74.4000        28
  74.4500        49
  74.5000        78
  74.5500        58
  74.6000        94
  74.6500       106
  74.7000       127
  74.7500       128
  74.8000       137
  74.8500       166
  74.9000       150
  74.9500       142
  75.0000       131
  75.0500       125
  75.1000       107
  75.1500        76
  75.2000        89
  75.2500        75
  75.3000        60
  75.3500        36
  75.4000        49
  75.4500        22
  75.5000        18
  75.5500        18
  75.6000        20
  75.6500        21
  75.7000        14
  75.7500        10
  75.8000        20
  75.8500        10
  75.9000        12
  75.9500        14
  76.0000         8
  76.0500        12
  76.1000         8
  76.1500         9
  76.2000        14
  76.2500        10
  76.3000         5
  76.3500        13
  76.4000         4
  76.4500         9
  76.5000         5
  76.5500        13
  76.6000         9
  76.6500         6
  76.7000         4
  76.7500         9
  76.8000         8
  76.8500         8
  76.9000        11
  76.9500         7
  77.0000         9
  77.0500         6
  77.1000        10
  77.1500         7
  77.2000         5
  77.2500         9
  77.3000        10
  77.3500        10
  77.4000         6
  77.4500         6
  77.5000         4
  77.5500        12
  77.6000         3
  77.6500         9
  77.7000         7
  77.7500         9
  77.8000         6
  77.8500         7
  77.9000         4
  77.9500         9
  78.0000         9
  78.0500         7
  78.1000         9
  78.1500         9
  78.2000         4
  78.2500         8
  78.3000        11
  78.3500         8
  78.4000         2
  78.4500         3
  78.5000         7
  78.5500         9
  78.6000         5
  78.6500         4
  78.7000         5
  78.7500         6
  78.8000         4
  78.8500         2
  78.9000        11
  78.9500         6
  79.0000         7
  79.0500         8
  79.1000        12
  79.1500         5
  79.2000         8
  79.2500         9
  79.3000         9
  79.3500        12
  79.4000         5
  79.4500         8
  79.5000         8
  79.5500         6
  79.6000         3
  79.6500         8
  79.7000         7
  79.7500         9
  79.8000         8
  79.8500         7
  79.9000         5
  79.9500         7
  80.0000         6
  80.0500         6
  80.1000         7
  80.1500         7
  80.2000         7
  80.2500         7
  80.3000         9
  80.3500        10
  80.4000         7
  80.4500         8
  80.5000         4
  80.5500         6
  80.6000         9
  80.6500         6
  80.7000         5
  80.7500         3
  80.8000         3
  80.8500         9
  80.9000         8
  80.9500         3
  81.0000         6
  81.0500         6
  81.1000         4
  81.1500         7
  81.2000         6
  81.2500         8
  81.3000         6
  81.3500         8
  81.4000         5
  81.4500         7
  81.5000         7
  81.5500        12
  81.6000         5
  81.6500         7
  81.7000         8
  81.7500         4
  81.8000        10
  81.8500         6
  81.9000         3
  81.9500         6
  82.0000         6
  82.0500         2
  82.1000         7
  82.1500         4
  82.2000         7
  82.2500         1
  82.3000         5
  82.3500         9
  82.4000         5
  82.4500        11
  82.5000         7
  82.5500        10
  82.6000         5
  82.6500         4
  82.7000         3
  82.7500         7
  82.8000         8
  82.8500         4
  82.9000         5
  82.9500         4
  83.0000         5
  83.0500         6
  83.1000         5
  83.1500         5
  83.2000         2
  83.2500         5
  83.3000         6
  83.3500         6
  83.4000         7
  83.4500         5
  83.5000         3
  83.5500        12
  83.6000         8
  83.6500         6
  83.7000         4
  83.7500         9
  83.8000         3
  83.8500         5
  83.9000        10
  83.9500         7
  84.0000         3
  84.0500         4
  84.1000         4
  84.1500         6
  84.2000         5
  84.2500         8
  84.3000         7
  84.3500         6
  84.4000         5
  84.4500         7
  84.5000         5
  84.5500         3
  84.6000         8
  84.6500         6
  84.7000         7
  84.7500         6
  84.8000         9
  84.8500        10
  84.9000         8
  84.9500         6
  85.0000         7
  85.0500         4
  85.1000         9
  85.1500         8
  85.2000         9
  85.2500         4
  85.3000         6
  85.3500        10
  85.4000         7
  85.4500        11
  85.5000         5
  85.5500        10
  85.6000         6
  85.6500         6
  85.7000         8
  85.7500         8
  85.8000         7
  85.8500         7
  85.9000         8
  85.9500         5
  86.0000         6
  86.0500         8
  86.1000         7
  86.1500         2
  86.2000         4
  86.2500         5
  86.3000        11
  86.3500         4
  86.4000         8
  86.4500        14
  86.5000        12
  86.5500         7
  86.6000         7
  86.6500         8
  86.7000         6
  86.7500         4
  86.8000         7
  86.8500        10
  86.9000         5
  86.9500         4
  87.0000         1
  87.0500        14
  87.1000        10
  87.1500        13
  87.2000         6
  87.2500         7
  87.3000         4
  87.3500         8
  87.4000         8
  87.4500         7
  87.5000         6
  87.5500         5
  87.6000         7
  87.6500        10
  87.7000         4
  87.7500         4
  87.8000         2
  87.8500         8
  87.9000         6
  87.9500         6
  88.0000         5
  88.0500        11
  88.1000        13
  88.1500         7
  88.2000         8
  88.2500         6
  88.3000         9
  88.3500         9
  88.4000         8
  88.4500         7
  88.5000         7
  88.5500         6
  88.6000         8
  88.6500         7
  88.7000        10
  88.7500         6
  88.8000         9
  88.8500         8
  88.9000         8
  88.9500         8
  89.0000        12
  89.0500         9
  89.1000         8
  89.1500        13
  89.2000        14
  89.2500        10
  89.3000        13
  89.3500        14
  89.4000        15
  89.4500        12
  89.5000        12
  89.5500        13
  89.6000        14
  89.6500        11
  89.7000        14
  89.7500        20
  89.8000        18
  89.8500        18
  89.9000        18
  89.9500        16
  90.0000        25
  90.0500        24
  90.1000        32
  90.1500        29
  90.2000        18
  90.2500        31
  90.3000        45
  90.3500        47
  90.4000        70
  90.4500        46
  90.5000        64
  90.5500        64
  90.6000        87
  90.6500       111
  90.7000       104
  90.7500       120
  90.8000       136
  90.8500       111
  90.9000       143
  90.9500       141
  91.0000       136
  91.0500       108
  91.1000       105
  91.1500       105
  91.2000        89
  91.2500        82
  91.3000        65
  91.3500        68
  91.4000        51
  91.4500        48
  91.5000        36
  91.5500        44
  91.6000        34
  91.6500        40
  91.7000        30
  91.7500        26
  91.8000        22
  91.8500        17
  91.9000        23
  91.9500        12
  92.0000        13
  92.0500        16
  92.1000        13
  92.1500         8
  92.2000        15
  92.2500        10
  92.3000         5
  92.3500        14
  92.4000        16
  92.4500        11
  92.5000         5
  92.5500         8
  92.6000        10
  92.6500         5
  92.7000        12
  92.7500         5
  92.8000         6
  92.8500        11
  92.9000         5
  92.9500         9
  93.0000         9
  93.0500         6
  93.1000        12
  93.1500        13
  93.2000        12
  93.2500        10
  93.3000         5
  93.3500         6
  93.4000         7
  93.4500         7
  93.5000        11
  93.5500        10
  93.6000         9
  93.6500         7
  93.7000         5
  93.7500         7
  93.8000         5
  93.8500        10
  93.9000         1
  93.9500         8
  94.0000         6
  94.0500        11
  94.1000         7
  94.1500        11
  94.2000         4
  94.2500         9
  94.3000        10
  94.3500         7
  94.4000         7
  94.4500         8
  94.5000         7
  94.5500         7
  94.6000        10
  94.6500         6
  94.7000        12
  94.7500         8
  94.8000        11
  94.8500        11
  94.9000         6
  94.9500        10
  95.0000         8
  95.0500         9
  95.1000        12
  95.1500         7
  95.2000         6
  95.2500         8
  95.3000        10
  95.3500        11
  95.4000         9
  95.4500        10
  95.5000        11
  95.5500        18
  95.6000        12
  95.6500        17
  95.7000        14
  95.7500        22
  95.8000        36
  95.8500        30
  95.9000        37
  95.9500        22
  96.0000        34
  96.0500        30
  96.1000        29
  96.1500        46
  96.2000        34
  96.2500        58
  96.3000        40
  96.3500        44
  96.4000        44
  96.4500        34
  96.5000        33
  96.5500        32
  96.6000        38
  96.6500        24
  96.7000        19
  96.7500        20
  96.8000        21
  96.8500        21
  96.9000         9
  96.9500        14
  97.0000        11
  97.0500         6
  97.1000         9
  97.1500         4
  97.2000         8
  97.2500         3
  97.3000         5
  97.3500        10
  97.4000         8
  97.4500         4
  97.5000         7
  97.5500        13
  97.6000         8
  97.6500         8
  97.7000         4
  97.7500         6
  97.8000         7
  97.8500         7
  97.9000         6
  97.9500        11
  98.0000        12
  98.0500         3
  98.1000        10
  98.1500         8
  98.2000         9
  98.2500         5
  98.3000         7
  98.3500         3
  98.4000         5
  98.4500         7
  98.5000         8
  98.5500         2
  98.6000         8
  98.6500         7
  98.7000         9
  98.7500         3
  98.8000         4
  98.8500         6
  98.9000         7
  98.9500         4
  99.0000        10
  99.0500         8
  99.1000         5
  99.1500         9
  99.2000         8
  99.2500         7
  99.3000         5
  99.3500         8
  99.4000         7
  99.4500         0
  99.5000        13
  99.5500         3
  99.6000         9
  99.6500         9
  99.7000        11
  99.7500         3
  99.8000        10
  99.8500         2
  99.9000         7
  99.9500         6
 100.0000         7
 100.0500         9
 100.1000        12
 100.1500         8
 100.2000         5
 100.2500         1
 100.3000         6
 100.3500         2
 100.4000         6
 100.4500         5
 100.5000        10
 100.5500         3
 100.6000         5
 100.6500         6
 100.7000         9
 100.7500         5
 100.8000         4
 100.8500         9
 100.9000         6
 100.9500         3
 101.0000         5
 101.0500         6
 101.1000         5
 101.1500         7
 101.2000         5
 101.2500         5
 101.3000         3
 101.3500         5
 101.4000         4
 101.4500         5
 101.5000         5
 101.5500         5
 101.6000        10
 101.6500         4
 101.7000        10
 101.7500         9
 101.8000         4
 101.8500         5
 101.9000         3
 101.9500         6
 102.0000        12
 102.0500         6
 102.1000        10
 102.1500         6
 102.2000         3
 102.2500         9
 102.3000         5
 102.3500         5
 102.4000         6
 102.4500         7
 102.5000         5
 102.5500         4
 102.6000         5
 102.6500         8
 102.7000         7
 102.7500         9
 102.8000         9
 102.8500         6
 102.9000         4
 102.9500         2
 103.0000         5
 103.0500         6
 103.1000         5
 103.1500         9
 103.2000         4
 103.2500         4
 103.3000         5
 103.3500        10
 103.4000         6
 103.4500         8
 103.5000         2
 103.5500         7
 103.6000         7
 103.6500         5
 103.7000         5
 103.7500         6
 103.8000         4
 103.8500         7
 103.9000        15
 103.9500         3
 104.0000         4
 104.0500         7
 104.1000         4
 104.1500         7
 104.2000         6
 104.2500         4
 104.3000         7
 104.3500         8
 104.4000         4
 104.4500         9
 104.5000         8
 104.5500        10
 104.6000         4
 104.6500         5
 104.7000         8
 104.7500         7
 104.8000         2
 104.8500         5
 104.9000        10
 104.9500         5
 105.0000         8
 105.0500         4
 105.1000         8
 105.1500         5
 105.2000         6
 105.2500         2
 105.3000         2
 105.3500         5
 105.4000         2
 105.4500         5
 105.5000         6
 105.5500         7
 105.6000         5
 105.6500         7
 105.7000         5
 105.7500        10
 105.8000         3
 105.8500         5
 105.9000         6
 105.9500         3
 106.0000         4
 106.0500         5
 106.1000        13
 106.1500         6
 106.2000         7
 106.2500         8
 106.3000        10
 106.3500         8
 106.4000        11
 106.4500         6
 106.5000        13
 106.5500         5
 106.6000         4
 106.6500         3
 106.7000         4
 106.7500         8
 106.8000         7
 106.8500         3
 106.9000         4
 106.9500         3
 107.0000         3
 107.0500         4
 107.1000         9
 107.1500         6
 107.2000         6
 107.2500         9
 107.3000         4
 107.3500         8
 107.4000         4
 107.4500         8
 107.5000        12
 107.5500         8
 107.6000         5
 107.6500         8
 107.7000         8
 107.7500        10
 107.8000         4
 107.8500         4
 107.9000         7
 107.9500         9
 108.0000         8
 108.0500         6
 108.1000         6
 108.1500         5
 108.2000         7
 108.2500         5
 108.3000        11
 108.3500         5
 108.4000         4
 108.4500         5
 108.5000         6
 108.5500         8
 108.6000         9
 108.6500         5
 108.7000         1
 108.7500         4
 108.8000         3
 108.8500         3
 108.9000        11
 108.9500         5
 109.0000        10
 109.0500         5
 109.1000         6
 109.1500        11
 109.2000         8
 109.2500         3
 109.3000         9
 109.3500         4
 109.4000         8
 109.4500        11
 109.5000         6
 109.5500         3
 109.6000        10
 109.6500         8
 109.7000         5
 109.7500         4
 109.8000         6
 109.8500         8
 109.9000         3
 109.9500        13
 110.0000         4
