  10.0000        19
  10.0500        21
  10.1000        29
  10.1500        28
  10.2000        45
  10.2500        33
  10.3000        30
  10.3500        24
  10.4000        23
  10.4500        11
  10.5000        20
  10.5500        13
  10.6000         8
  10.6500        17
  10.7000        11
  10.7500         4
  10.8000        17
  10.8500        10
  10.9000        11
  10.9500         8
  11.0000        12
  11.0500         4
  11.1000         8
  11.1500         9
  11.2000         7
  11.2500        10
  11.3000         6
  11.3500         4
  11.4000         9
  11.4500         5
  11.5000         8
  11.5500         3
  11.6000         9
  11.6500         6
  11.7000        10
  11.7500         8
  11.8000         9
  11.8500        11
  11.9000         7
  11.9500         6
  12.0000         8
  12.0500         9
  12.1000         3
  12.1500         7
  12.2000         5
  12.2500        16
  12.3000         7
  12.3500         8
  12.4000         3
  12.4500         6
  12.5000        10
  12.5500         8
  12.6000         9
  12.6500         8
  12.7000         7
  12.7500         7
  12.8000         9
  12.8500         5
  12.9000         7
  12.9500         8
  13.0000         6
  13.0500         8
  13.1000         3
  13.1500         6
  13.2000         6
  13.2500         7
  13.3000         8
  13.3500         4
  13.4000         2
  13.4500         4
  13.5000         7
  13.5500         5
  13.6000         5
  13.6500         4
  13.7000         4
  13.7500        14
  13.8000         5
  13.8500         5
  13.9000        12
  13.9500         7
  14.0000        10
  14.0500         9
  14.1000         9
  14.1500         8
  14.2000         7
  14.2500         5
  14.3000         4
  14.3500         4
  14.4000         3
  14.4500         9
  14.5000         5
  14.5500         2
  14.6000         7
  14.6500         1
  14.7000         5
  14.7500         7
  14.8000         4
  14.8500         5
  14.9000         2
  14.9500         6
  15.0000         3
  15.0500         3
  15.1000         7
  15.1500         3
  15.2000         8
  15.2500         3
  15.3000         7
  15.3500         6
  15.4000         6
  15.4500         4
  15.5000         4
  15.5500         4
  15.6000         3
  15.6500         9
  15.7000         7
  15.7500         7
  15.8000         8
  15.8500         3
  15.9000         3
  15.9500         4
  16.0000         9
  16.0500         8
  16.1000         6
  16.1500         5
  16.2000         6
  16.2500         2
  16.3000         2
  16.3500         7
  16.4000         2
  16.4500         3
  16.5000         2
  16.5500         5
  16.6000         4
  16.6500        10
  16.7000         3
  16.7500         5
  16.8000         6
  16.8500         9
  16.9000         3
  16.9500         4
  17.0000         1
  17.0500         1
  17.1000         3
  17.1500         4
  17.2000         4
  17.2500         8
  17.3000        10
  17.3500         2
  17.4000         3
  17.4500         5
  17.5000         6
  17.5500         4
  17.6000         5
  17.6500         4
  17.7000         3
  17.7500         4
  17.8000         4
  17.8500         5
  17.9000         9
  17.9500         5
  18.0000         6
  18.0500         7
  18.1000         4
  18.1500         5
  18.2000         2
  18.2500         7
  18.3000         5
  18.3500         3
  18.4000         4
  18.4500         6
  18.5000         1
  18.5500         3
  18.6000         6
  18.6500         7
  18.7000         4
  18.7500         3
  18.8000         5
  18.8500         4
  18.9000         5
  18.9500         5
  19.0000         4
  19.0500         1
  19.1000         9
  19.1500         6
  19.2000         2
  19.2500         6
  19.3000         4
  19.3500         7
  19.4000         5
  19.4500         3
  19.5000         5
  19.5500         8
  19.6000         5
  19.6500         7
  19.7000         6
  19.7500         8
  19.8000         6
  19.8500         7
  19.9000        12
  19.9500         7
  20.0000        11
  20.0500         6
  20.1000         4
  20.1500         4
  20.2000         3
  20.2500         4
  20.3000         4
  20.3500         7
  20.4000         5
  20.4500         4
  20.5000         5
  20.5500         4
  20.6000         7
  20.6500         8
  20.7000         5
  20.7500         8
  20.8000         6
  20.8500        13
  20.9000         7
  20.9500        10
  21.0000         5
  21.0500        13
  21.1000         7
  21.1500         7
  21.2000         9
  21.2500        14
  21.3000         8
  21.3500         3
  21.4000         5
  21.4500         6
  21.5000         7
  21.5500         6
  21.6000        10
  21.6500         5
  21.7000         6
  21.7500        13
  21.8000         7
  21.8500         7
  21.9000        12
  21.9500        10
  22.0000         5
  22.0500         9
  22.1000         6
  22.1500         5
  22.2000         9
  22.2500         6
  22.3000         7
  22.3500         9
  22.4000         5
  22.4500         7
  22.5000         7
  22.5500         8
  22.6000         4
  22.6500         6
  22.7000         8
  22.7500         4
  22.8000         9
  22.8500         9
  22.9000         5
  22.9500        10
  23.0000        10
  23.0500        13
  23.1000        12
  23.1500         4
  23.2000        13
  23.2500        17
  23.3000        11
  23.3500        14
  23.4000         7
  23.4500         9
  23.5000        14
  23.5500         7
  23.6000        12
  23.6500         7
  23.7000         5
  23.7500         9
  23.8000         6
  23.8500        13
  23.9000         8
  23.9500         8
  24.0000         7
  24.0500        11
  24.1000         7
  24.1500         4
  24.2000         6
  24.2500         7
  24.3000         7
  24.3500         7
  24.4000         9
  24.4500        10
  24.5000        10
  24.5500         5
  24.6000         7
  24.6500        12
  24.7000         6
  24.7500         6
  24.8000        15
  24.8500        13
  24.9000         8
  24.9500        10
  25.0000         4
  25.0500         3
  25.1000        13
  25.1500        17
  25.2000         8
  25.2500         7
  25.3000         9
  25.3500         6
  25.4000         8
  25.4500         5
  25.5000         3
  25.5500         4
  25.6000         8
  25.6500         5
  25.7000         7
  25.7500         8
  25.8000        11
  25.8500         7
  25.9000         8
  25.9500        10
  26.0000        10
  26.0500         5
  26.1000         9
  26.1500         8
  26.2000        11
  26.2500         6
  26.3000         9
  26.3500        11
  26.4000         5
  26.4500        11
  26.5000         8
  26.5500        12
  26.6000        16
  26.6500        10
  26.7000        10
  26.7500         9
  26.8000         7
  26.8500        15
  26.9000         6
  26.9500        10
  27.0000        11
  27.0500         9
  27.1000        14
  27.1500        15
  27.2000        13
  27.2500        10
  27.3000        13
  27.3500        17
  27.4000        14
  27.4500         9
  27.5000        10
  27.5500        11
  27.6000        13
  27.6500        15
  27.7000         8
  27.7500        12
  27.8000        15
  27.8500         9
  27.9000        16
  27.9500        15
  28.0000        14
  28.0500        18
  28.1000        11
  28.1500        19
  28.2000        12
  28.2500        23
  28.3000        30
  28.3500        18
  28.4000        30
  28.4500        22
  28.5000        20
  28.5500        21
  28.6000        18
  28.6500        19
  28.7000        16
  28.7500        16
  28.8000        16
  28.8500        12
  28.9000        13
  28.9500         8
  29.0000         9
  29.0500        12
  29.1000        11
  29.1500        12
  29.2000        10
  29.2500         6
  29.3000        17
  29.3500        17
  29.4000         9
  29.4500         6
  29.5000        19
  29.5500        12
  29.6000        14
  29.6500        11
  29.7000        11
  29.7500         9
  29.8000        10
  29.8500        12
  29.9000        14
  29.9500        13
  30.0000        13
  30.0500        13
  30.1000        14
  30.1500         9
  30.2000        10
  30.2500        10
  30.3000        12
  30.3500        19
  30.4000        17
  30.4500        28
  30.5000        19
  30.5500        25
  30.6000        21
  30.6500        26
  30.7000        25
  30.7500        20
  30.8000        28
  30.8500        26
  30.9000        33
  30.9500        34
  31.0000        32
  31.0500        31
  31.1000        45
  31.1500        74
  31.2000       143
  31.2500       289
  31.3000       600
  31.3500      1234
  31.4000      1342
  31.4500      1095
  31.5000       573
  31.5500       264
  31.6000        62
  31.6500        45
  31.7000        32
  31.7500        27
  31.8000        25
  31.8500        22
  31.9000        27
  31.9500        25
  32.0000        22
  32.0500        21
  32.1000        29
  32.1500         9
  32.2000        12
  32.2500        19
  32.3000        24
  32.3500        20
  32.4000        18
  32.4500        10
  32.5000        11
  32.5500         4
  32.6000        12
  32.6500        12
  32.7000         9
  32.7500        14
  32.8000        17
  32.8500        12
  32.9000        11
  32.9500        13
  33.0000        14
  33.0500        14
  33.1000        17
  33.1500        10
  33.2000        11
  33.2500         9
  33.3000         6
  33.3500         5
  33.4000         8
  33.4500         7
  33.5000         8
  33.5500         9
  33.6000        11
  33.6500        19
  33.7000        10
  33.7500        11
  33.8000        19
  33.8500        12
  33.9000         9
  33.9500        14
  34.0000        11
  34.0500         9
  34.1000        18
  34.1500         5
  34.2000        12
  34.2500        16
  34.3000        19
  34.3500        14
  34.4000        18
  34.4500        14
  34.5000        15
  34.5500        13
  34.6000         7
  34.6500        10
  34.7000         6
  34.7500        14
  34.8000         9
  34.8500        11
  34.9000         6
  34.9500         8
  35.0000        16
  35.0500         5
  35.1000        13
  35.1500        12
  35.2000        12
  35.2500        14
  35.3000        11
  35.3500        12
  35.4000        13
  35.4500        14
  35.5000        10
  35.5500         8
  35.6000         8
  35.6500        17
  35.7000        23
  35.7500        12
  35.8000        10
  35.8500         9
  35.9000        20
  35.9500        14
  36.0000        23
  36.0500        25
  36.1000        29
  36.1500        55
  36.2000        80
  36.2500       169
  36.3000       429
  36.3500       718
  36.4000       633
  36.4500       557
  36.5000       253
  36.5500       144
  36.6000        62
  36.6500        35
  36.7000        22
  36.7500        20
  36.8000         5
  36.8500        12
  36.9000        11
  36.9500        10
  37.0000        15
  37.0500        11
  37.1000         8
  37.1500        11
  37.2000        15
  37.2500        13
  37.3000         8
  37.3500         7
  37.4000         7
  37.4500         5
  37.5000         8
  37.5500        11
  37.6000         4
  37.6500        10
  37.7000        13
  37.7500         7
  37.8000         6
  37.8500        10
  37.9000         4
  37.9500         9
  38.0000        13
  38.0500        10
  38.1000         6
  38.1500         5
  38.2000         8
  38.2500        10
  38.3000        10
  38.3500         9
  38.4000         5
  38.4500         7
  38.5000         9
  38.5500        12
  38.6000         3
  38.6500         7
  38.7000        13
  38.7500        10
  38.8000         8
  38.8500         8
  38.9000        13
  38.9500         6
  39.0000        11
  39.0500         8
  39.1000         5
  39.1500         4
  39.2000         3
  39.2500         4
  39.3000         9
  39.3500         7
  39.4000         2
  39.4500         4
  39.5000         1
  39.5500         8
  39.6000         5
  39.6500         6
  39.7000        11
  39.7500        10
  39.8000         6
  39.8500         2
  39.9000         6
  39.9500         7
  40.0000        12
  40.0500         6
  40.1000         5
  40.1500         6
  40.2000         3
  40.2500        10
  40.3000         7
  40.3500         9
  40.4000        10
  40.4500         7
  40.5000        10
  40.5500        11
  40.6000        11
  40.6500         9
  40.7000         5
  40.7500         5
  40.8000         6
  40.8500         7
  40.9000         6
  40.9500         6
  41.0000         4
  41.0500         7
  41.1000         6
  41.1500         6
  41.2000         6
  41.2500         4
  41.3000         6
  41.3500         5
  41.4000         3
  41.4500         2
  41.5000         5
  41.5500        10
  41.6000         3
  41.6500         2
  41.7000         7
  41.7500         9
  41.8000         9
  41.8500         8
  41.9000         5
  41.9500         9
  42.0000         7
  42.0500         6
  42.1000         8
  42.1500         6
  42.2000         5
  42.2500         5
  42.3000         4
  42.3500         7
  42.4000         5
  42.4500         7
  42.5000        10
  42.5500         7
  42.6000        11
  42.6500         7
  42.7000        10
  42.7500         8
  42.8000         9
  42.8500        10
  42.9000        11
  42.9500         6
  43.0000         8
  43.0500         5
  43.1000         4
  43.1500         7
  43.2000         3
  43.2500         7
  43.3000         8
  43.3500        10
  43.4000         7
  43.4500         7
  43.5000         7
  43.5500         5
  43.6000         5
  43.6500         5
  43.7000         4
  43.7500         5
  43.8000         4
  43.8500         7
  43.9000         6
  43.9500         9
  44.0000         4
  44.0500         4
  44.1000         7
  44.1500         4
  44.2000         6
  44.2500         3
  44.3000         8
  44.3500         7
  44.4000        10
  44.4500        13
  44.5000         9
  44.5500         7
  44.6000         8
  44.6500         8
  44.7000         6
  44.7500         6
  44.8000         8
  44.8500         5
  44.9000         4
  44.9500        10
  45.0000         4
  45.0500         6
  45.1000         9
  45.1500         8
  45.2000         7
  45.2500        13
  45.3000         6
  45.3500         9
  45.4000         8
  45.4500         5
  45.5000        10
  45.5500        13
  45.6000         4
  45.6500         8
  45.7000         6
  45.7500         5
  45.8000        10
  45.8500         8
  45.9000         5
  45.9500         9
  46.0000         4
  46.0500         6
  46.1000         7
  46.1500         4
  46.2000         2
  46.2500         4
  46.3000         5
  46.3500         3
  46.4000         3
  46.4500         6
  46.5000         4
  46.5500         4
  46.6000         8
  46.6500         4
  46.7000         8
  46.7500         4
  46.8000        11
  46.8500         6
  46.9000         6
  46.9500         5
  47.0000         5
  47.0500         5
  47.1000         6
  47.1500         9
  47.2000         8
  47.2500         7
  47.3000         7
  47.3500         5
  47.4000         5
  47.4500        10
  47.5000         3
  47.5500         4
  47.6000         5
  47.6500         2
  47.7000         8
  47.7500         5
  47.8000         7
  47.8500        14
  47.9000         9
  47.9500        12
  48.0000         3
  48.0500         4
  48.1000         5
  48.1500        13
  48.2000        10
  48.2500        10
  48.3000         6
  48.3500         8
  48.4000        13
  48.4500         9
  48.5000         6
  48.5500        11
  48.6000         9
  48.6500         8
  48.7000         7
  48.7500         4
  48.8000         6
  48.8500         3
  48.9000         7
  48.9500         6
  49.0000         8
  49.0500         9
  49.1000         4
  49.1500         1
  49.2000         6
  49.2500         9
  49.3000         4
  49.3500        15
  49.4000         9
  49.4500         6
  49.5000         6
  49.5500         6
  49.6000         8
  49.6500         5
  49.7000        10
  49.7500         5
  49.8000         5
  49.8500         2
  49.9000         4
  49.9500         8
  50.0000         9
  50.0500        10
  50.1000         8
  50.1500        10
  50.2000         7
  50.2500         6
  50.3000         6
  50.3500         6
  50.4000         7
  50.4500         8
  50.5000         7
  50.5500         9
  50.6000         9
  50.6500         7
  50.7000         6
  50.7500        10
  50.8000         8
  50.8500        14
  50.9000         5
  50.9500         9
  51.0000         7
  51.0500         8
  51.1000         7
  51.1500         8
  51.2000         7
  51.2500        10
  51.3000         6
  51.3500         9
  51.4000         9
  51.4500        11
  51.5000         6
  51.5500        10
  51.6000         9
  51.6500         4
  51.7000         8
  51.7500        14
  51.8000         2
  51.8500        14
  51.9000        10
  51.9500         8
  52.0000        18
  52.0500        18
  52.1000        15
  52.1500        35
  52.2000        61
  52.2500       139
  52.3000       235
  52.3500       254
  52.4000       211
  52.4500       177
  52.5000       118
  52.5500        78
  52.6000        41
  52.6500        14
  52.7000        15
  52.7500        12
  52.8000         8
  52.8500        11
  52.9000         7
  52.9500         9
  53.0000        13
  53.0500         9
  53.1000         9
  53.1500        10
  53.2000        13
  53.2500        10
  53.3000         5
  53.3500         5
  53.4000        13
  53.4500         3
  53.5000         6
  53.5500         7
  53.6000         5
  53.6500        12
  53.7000         9
  53.7500         6
  53.8000         9
  53.8500         7
  53.9000        12
  53.9500         6
  54.0000        11
  54.0500        11
  54.1000         7
  54.1500        11
  54.2000         6
  54.2500        10
  54.3000         7
  54.3500        16
  54.4000         8
  54.4500        15
  54.5000         8
  54.5500        17
  54.6000         5
  54.6500        11
  54.7000        14
  54.7500         6
  54.8000         8
  54.8500         8
  54.9000        12
  54.9500         7
  55.0000         6
  55.0500         6
  55.1000         8
  55.1500         4
  55.2000        13
  55.2500        13
  55.3000         9
  55.3500         8
  55.4000         8
  55.4500         9
  55.5000         5
  55.5500         9
  55.6000         6
  55.6500         7
  55.7000         6
  55.7500         7
  55.8000         4
  55.8500        10
  55.9000         7
  55.9500        10
  56.0000         8
  56.0500        10
  56.1000         6
  56.1500        10
  56.2000         5
  56.2500         7
  56.3000        10
  56.3500        10
  56.4000         6
  56.4500         8
  56.5000         3
  56.5500         7
  56.6000        11
  56.6500        12
  56.7000        13
  56.7500        11
  56.8000         8
  56.8500        19
  56.9000         6
  56.9500         8
  57.0000         8
  57.0500        11
  57.1000         9
  57.1500         9
  57.2000         3
  57.2500        10
  57.3000        17
  57.3500         6
  57.4000         8
  57.4500         4
  57.5000         7
  57.5500         6
  57.6000         5
  57.6500         3
  57.7000        10
  57.7500        12
  57.8000        10
  57.8500         7
  57.9000         6
  57.9500         8
  58.0000         5
  58.0500         7
  58.1000        10
  58.1500         8
  58.2000        12
  58.2500        11
  58.3000         9
  58.3500         5
  58.4000         8
  58.4500         7
  58.5000         9
  58.5500         7
  58.6000         9
  58.6500         3
  58.7000        14
  58.7500        11
  58.8000        13
  58.8500         6
  58.9000        12
  58.9500        10
  59.0000         4
  59.0500        10
  59.1000         6
  59.1500         8
  59.2000        14
  59.2500         8
  59.3000        16
  59.3500         8
  59.4000         8
  59.4500         6
  59.5000        11
  59.5500         9
  59.6000         8
  59.6500         6
  59.7000         8
  59.7500        11
  59.8000         9
  59.8500         9
  59.9000         9
  59.9500        10
  60.0000         6
  60.0500         9
  60.1000         8
  60.1500         8
  60.2000        10
  60.2500         5
  60.3000         9
  60.3500        14
  60.4000         8
  60.4500         7
  60.5000         9
  60.5500         7
  60.6000         9
  60.6500        13
  60.7000        12
  60.7500        10
  60.8000        12
  60.8500         7
  60.9000        11
  60.9500        10
  61.0000         6
  61.0500         7
  61.1000        13
  61.1500        13
  61.2000        12
  61.2500         7
  61.3000        11
  61.3500         9
  61.4000         7
  61.4500        13
  61.5000        12
  61.5500        13
  61.6000        10
  61.6500        19
  61.7000        10
  61.7500        14
  61.8000        22
  61.8500        17
  61.9000        24
  61.9500        20
  62.0000        29
  62.0500        37
  62.1000        66
  62.1500       152
  62.2000       225
  62.2500       260
  62.3000       190
  62.3500       187
  62.4000       187
  62.4500       133
  62.5000        75
  62.5500        45
  62.6000        28
  62.6500        21
  62.7000        11
  62.7500        13
  62.8000        12
  62.8500        10
  62.9000        14
  62.9500         4
  63.0000         8
  63.0500        10
  63.1000         9
  63.1500         6
  63.2000         5
  63.2500        13
  63.3000        14
  63.3500        14
  63.4000        17
  63.4500        11
  63.5000         9
  63.5500        14
  63.6000         7
  63.6500         9
  63.7000        12
  63.7500        10
  63.8000        13
  63.8500         8
  63.9000         5
  63.9500        11
  64.0000        11
  64.0500         7
  64.1000         4
  64.1500         8
  64.2000        11
  64.2500        11
  64.3000        10
  64.3500         9
  64.4000        11
  64.4500        10
  64.5000        15
  64.5500        18
  64.6000         4
  64.6500        14
  64.7000        12
  64.7500         9
  64.8000        10
  64.8500         6
  64.9000        10
  64.9500         8
  65.0000        18
  65.0500        11
  65.1000        15
  65.1500        18
  65.2000        23
  65.2500        59
  65.3000       142
  65.3500        95
  65.4000        78
  65.4500        58
  65.5000        54
  65.5500        56
  65.6000        30
  65.6500        23
  65.7000        12
  65.7500        13
  65.8000        12
  65.8500        10
  65.9000        14
  65.9500        14
  66.0000         8
  66.0500         8
  66.1000         8
  66.1500        10
  66.2000         9
  66.2500         6
  66.3000        11
  66.3500         8
  66.4000         4
  66.4500         9
  66.5000         9
  66.5500         3
  66.6000         8
  66.6500         4
  66.7000         6
  66.7500        10
  66.8000         4
  66.8500         2
  66.9000        10
  66.9500         5
  67.0000         7
  67.0500         4
  67.1000         5
  67.1500         8
  67.2000         5
  67.2500         9
  67.3000         7
  67.3500         4
  67.4000         6
  67.4500         5
  67.5000         7
  67.5500         8
  67.6000         2
  67.6500         7
  67.7000         6
  67.7500         8
  67.8000         7
  67.8500         4
  67.9000        10
  67.9500         8
  68.0000         4
  68.0500         4
  68.1000         5
  68.1500         8
  68.2000         4
  68.2500         6
  68.3000         7
  68.3500         6
  68.4000         5
  68.4500         5
  68.5000        11
  68.5500         3
  68.6000        14
  68.6500         9
  68.7000         7
  68.7500         1
  68.8000         6
  68.8500         6
  68.9000         3
  68.9500         5
  69.0000         8
  69.0500        11
  69.1000         4
  69.1500         4
  69.2000         4
  69.2500         5
  69.3000         7
  69.3500         5
  69.4000         3
  69.4500         9
  69.5000         6
  69.5500         4
  69.6000         5
  69.6500        10
  69.7000         5
  69.7500         4
  69.8000         6
  69.8500         3
  69.9000         5
  69.9500         4
  70.0000         5
  70.0500         6
  70.1000         7
  70.1500         6
  70.2000         6
  70.2500         6
  70.3000        12
  70.3500         8
  70.4000         9
  70.4500         7
  70.5000         5
  70.5500        12
  70.6000         1
  70.6500         3
  70.7000         3
  70.7500         4
  70.8000         5
  70.8500         2
  70.9000         9
  70.9500         5
  71.0000         5
  71.0500         7
  71.1000         6
  71.1500         5
  71.2000         4
  71.2500         5
  71.3000         8
  71.3500         7
  71.4000        11
  71.4500         8
  71.5000         7
  71.5500         3
  71.6000        10
  71.6500         5
  71.7000         5
  71.7500         9
  71.8000         3
  71.8500         7
  71.9000         4
  71.9500         4
  72.0000         8
  72.0500         3
  72.1000         6
  72.1500         6
  72.2000         3
  72.2500         7
  72.3000         9
  72.3500         3
  72.4000         8
  72.4500         6
  72.5000         5
  72.5500         9
  72.6000         7
  72.6500         2
  72.7000         3
  72.7500         6
  72.8000         6
  72.8500         7
  72.9000         6
  72.9500         4
  73.0000         8
  73.0500         7
  73.1000         5
  73.1500         7
  73.2000         9
  73.2500         7
  73.3000         6
  73.3500         5
  73.4000         4
  73.4500         5
  73.5000         7
  73.5500         6
  73.6000         3
  73.6500         3
  73.7000         4
  73.7500         7
  73.8000         5
  73.8500         6
  73.9000         4
  73.9500         2
  74.0000         4
  74.0500         6
  74.1000         4
  74.1500         3
  74.2000         4
  74.2500         5
  74.3000         4
  74.3500         4
  74.4000         6
  74.4500         4
  74.5000         7
  74.5500         6
  74.6000         1
  74.6500         4
  74.7000         4
  74.7500         3
  74.8000         8
  74.8500         5
  74.9000         2
  74.9500         4
  75.0000         5
  75.0500         8
  75.1000         6
  75.1500         3
  75.2000         4
  75.2500         3
  75.3000        13
  75.3500         6
  75.4000         3
  75.4500         4
  75.5000         3
  75.5500         4
  75.6000         4
  75.6500        10
  75.7000         3
  75.7500         5
  75.8000         7
  75.8500         8
  75.9000         8
  75.9500         1
  76.0000         5
  76.0500         5
  76.1000         1
  76.1500         6
  76.2000         4
  76.2500         4
  76.3000         7
  76.3500         5
  76.4000         6
  76.4500         8
  76.5000         3
  76.5500         4
  76.6000        11
  76.6500         9
  76.7000        12
  76.7500         8
  76.8000         9
  76.8500         9
  76.9000        12
  76.9500        12
  77.0000        22
  77.0500        31
  77.1000        27
  77.1500        22
  77.2000        15
  77.2500        20
  77.3000        28
  77.3500        17
  77.4000        18
  77.4500        17
  77.5000         8
  77.5500         9
  77.6000         5
  77.6500        12
  77.7000         5
  77.7500         3
  77.8000         7
  77.8500         3
  77.9000         8
  77.9500         2
  78.0000         5
  78.0500         7
  78.1000         2
  78.1500         6
  78.2000         4
  78.2500         5
  78.3000         4
  78.3500         3
  78.4000         6
  78.4500         5
  78.5000         7
  78.5500         7
  78.6000         2
  78.6500         6
  78.7000         3
  78.7500         3
  78.8000         8
  78.8500         7
  78.9000         7
  78.9500         5
  79.0000         4
  79.0500         5
  79.1000         8
  79.1500         3
  79.2000         3
  79.2500         6
  79.3000         9
  79.3500         5
  79.4000         1
  79.4500         3
  79.5000         4
  79.5500         1
  79.6000         4
  79.6500         3
  79.7000         0
  79.7500         8
  79.8000         6
  79.8500         4
  79.9000         3
  79.9500         4
  80.0000         6
  80.0500         6
  80.1000         5
  80.1500         5
  80.2000         3
  80.2500         4
  80.3000         5
  80.3500         7
  80.4000         4
  80.4500         5
  80.5000         4
  80.5500        12
  80.6000         6
  80.6500         5
  80.7000         4
  80.7500         6
  80.8000         4
  80.8500         4
  80.9000         6
  80.9500         2
  81.0000         7
  81.0500         6
  81.1000         6
  81.1500         5
  81.2000         4
  81.2500         5
  81.3000         3
  81.3500         8
  81.4000         8
  81.4500         5
  81.5000        10
  81.5500        12
  81.6000         6
  81.6500         5
  81.7000        10
  81.7500         6
  81.8000         5
  81.8500         4
  81.9000         8
  81.9500        10
  82.0000         3
  82.0500         5
  82.1000         4
  82.1500         2
  82.2000         7
  82.2500         4
  82.3000         8
  82.3500         3
  82.4000         2
  82.4500         5
  82.5000         9
  82.5500         8
  82.6000         5
  82.6500         5
  82.7000         5
  82.7500         4
  82.8000         6
  82.8500         9
  82.9000         7
  82.9500         5
  83.0000         8
  83.0500         4
  83.1000         7
  83.1500        10
  83.2000         6
  83.2500         9
  83.3000         7
  83.3500         5
  83.4000         2
  83.4500         8
  83.5000         7
  83.5500         9
  83.6000         4
  83.6500         5
  83.7000         4
  83.7500         2
  83.8000         5
  83.8500         6
  83.9000         3
  83.9500         7
  84.0000         8
  84.0500         9
  84.1000        13
  84.1500         8
  84.2000         5
  84.2500         9
  84.3000         5
  84.3500         5
  84.4000         7
  84.4500         8
  84.5000         8
  84.5500         4
  84.6000         7
  84.6500         6
  84.7000        10
  84.7500         5
  84.8000         6
  84.8500         6
  84.9000        11
  84.9500         7
  85.0000         4
  85.0500         8
  85.1000         6
  85.1500        11
  85.2000        12
  85.2500        16
  85.3000        11
  85.3500        18
  85.4000        42
  85.4500        66
  85.5000        82
  85.5500        69
  85.6000        60
  85.6500        40
  85.7000        42
  85.7500        39
  85.8000        54
  85.8500        47
  85.9000        25
  85.9500        11
  86.0000        10
  86.0500        10
  86.1000        11
  86.1500         9
  86.2000         8
  86.2500        13
  86.3000        11
  86.3500        14
  86.4000         8
  86.4500         7
  86.5000         8
  86.5500         6
  86.6000         7
  86.6500         9
  86.7000         7
  86.7500         7
  86.8000         5
  86.8500         8
  86.9000        10
  86.9500         7
  87.0000         3
  87.0500         8
  87.1000        12
  87.1500         7
  87.2000         7
  87.2500         6
  87.3000         8
  87.3500         7
  87.4000        10
  87.4500         5
  87.5000         6
  87.5500         9
  87.6000         8
  87.6500        13
  87.7000         5
  87.7500        10
  87.8000        15
  87.8500        11
  87.9000        11
  87.9500         4
  88.0000         4
  88.0500        23
  88.1000        20
  88.1500        30
  88.2000        45
  88.2500        58
  88.3000        85
  88.3500        56
  88.4000        38
  88.4500        34
  88.5000        37
  88.5500        44
  88.6000        36
  88.6500        21
  88.7000        19
  88.7500        22
  88.8000        11
  88.8500        12
  88.9000        11
  88.9500         9
  89.0000         7
  89.0500        10
  89.1000        12
  89.1500         9
  89.2000         9
  89.2500         8
  89.3000         4
  89.3500         8
  89.4000         8
  89.4500        10
  89.5000         7
  89.5500         9
  89.6000         7
  89.6500         5
  89.7000         7
  89.7500         9
  89.8000         8
  89.8500         8
  89.9000         9
  89.9500         5
  90.0000         3
  90.0500         7
  90.1000         5
  90.1500        11
  90.2000        13
  90.2500         7
  90.3000         6
  90.3500         8
  90.4000         3
  90.4500         1
  90.5000         7
  90.5500         5
  90.6000         5
  90.6500         5
  90.7000         2
  90.7500         7
  90.8000         4
  90.8500         5
  90.9000         9
  90.9500         7
  91.0000         6
  91.0500        13
  91.1000         3
  91.1500         5
  91.2000         7
  91.2500        10
  91.3000         2
  91.3500         6
  91.4000         5
  91.4500         4
  91.5000         7
  91.5500         9
  91.6000         5
  91.6500         8
  91.7000         5
  91.7500        10
  91.8000         7
  91.8500         4
  91.9000         8
  91.9500        12
  92.0000         5
  92.0500        10
  92.1000         5
  92.1500         4
  92.2000         8
  92.2500         8
  92.3000         5
  92.3500         4
  92.4000         6
  92.4500         5
  92.5000         9
  92.5500         7
  92.6000        12
  92.6500         4
  92.7000         4
  92.7500         8
  92.8000         5
  92.8500         3
  92.9000         5
  92.9500         4
  93.0000         9
  93.0500         9
  93.1000         6
  93.1500        10
  93.2000         6
  93.2500        12
  93.3000         6
  93.3500         5
  93.4000         0
  93.4500         6
  93.5000         4
  93.5500         2
  93.6000         7
  93.6500         4
  93.7000         4
  93.7500         5
  93.8000         4
  93.8500         5
  93.9000         9
  93.9500         7
  94.0000        10
  94.0500         5
  94.1000         6
  94.1500         5
  94.2000         7
  94.2500         6
  94.3000        10
  94.3500         4
  94.4000         7
  94.4500         5
  94.5000         5
  94.5500         7
  94.6000         7
  94.6500         4
  94.7000         3
  94.7500         2
  94.8000         4
  94.8500         5
  94.9000         8
  94.9500         8
  95.0000        10
  95.0500         5
  95.1000         7
  95.1500         7
  95.2000         1
  95.2500        10
  95.3000         6
  95.3500        13
  95.4000         9
  95.4500        14
  95.5000         9
  95.5500         5
  95.6000         1
  95.6500         4
  95.7000         4
  95.7500        10
  95.8000         4
  95.8500         5
  95.9000         7
  95.9500         6
  96.0000         4
  96.0500         4
  96.1000         4
  96.1500         4
  96.2000        10
  96.2500         4
  96.3000         9
  96.3500         7
  96.4000         3
  96.4500         5
  96.5000         7
  96.5500         5
  96.6000         4
  96.6500         9
  96.7000         6
  96.7500         5
  96.8000         6
  96.8500         6
  96.9000        10
  96.9500         4
  97.0000         4
  97.0500         3
  97.1000         3
  97.1500         7
  97.2000         5
  97.2500         7
  97.3000         8
  97.3500         7
  97.4000         6
  97.4500        10
  97.5000         6
  97.5500         6
  97.6000        12
  97.6500         7
  97.7000         4
  97.7500         6
  97.8000         3
  97.8500         8
  97.9000        11
  97.9500         4
  98.0000         9
  98.0500         7
  98.1000         5
  98.1500         9
  98.2000         5
  98.2500         6
  98.3000         7
  98.3500         9
  98.4000         2
  98.4500         6
  98.5000         8
  98.5500         6
  98.6000         9
  98.6500         5
  98.7000         3
  98.7500         8
  98.8000         2
  98.8500        10
  98.9000         9
  98.9500         6
  99.0000        14
  99.0500        12
  99.1000         7
  99.1500         8
  99.2000        12
  99.2500        22
  99.3000        34
  99.3500        38
  99.4000        71
  99.4500        51
  99.5000        39
  99.5500        26
  99.6000        22
  99.6500        22
  99.7000        27
  99.7500        40
  99.8000        30
  99.8500        13
  99.9000        12
  99.9500         9
 100.0000        15
 100.0500        12
 100.1000         5
 100.1500         6
 100.2000         6
 100.2500         5
 100.3000         8
 100.3500        13
 100.4000         9
 100.4500         9
 100.5000         6
 100.5500         5
 100.6000         7
 100.6500         7
 100.7000        10
 100.7500         5
 100.8000         8
 100.8500        11
 100.9000         4
 100.9500        10
 101.0000         6
 101.0500         6
 101.1000         7
 101.1500         9
 101.2000        10
 101.2500         3
 101.3000         7
 101.3500         5
 101.4000         9
 101.4500        10
 101.5000         6
 101.5500         8
 101.6000         5
 101.6500         5
 101.7000         6
 101.7500         7
 101.8000         9
 101.8500         9
 101.9000         6
 101.9500         4
 102.0000         6
 102.0500         7
 102.1000         7
 102.1500         9
 102.2000         8
 102.2500         4
 102.3000         6
 102.3500        10
 102.4000         6
 102.4500         7
 102.5000         5
 102.5500        12
 102.6000         5
 102.6500         5
 102.7000         9
 102.7500         6
 102.8000         3
 102.8500         7
 102.9000         3
 102.9500         3
 103.0000         6
 103.0500         5
 103.1000         8
 103.1500         4
 103.2000         8
 103.2500         3
 103.3000         8
 103.3500         6
 103.4000         6
 103.4500         5
 103.5000         8
 103.5500         3
 103.6000         7
 103.6500         8
 103.7000         2
 103.7500         6
 103.8000         5
 103.8500         6
 103.9000         3
 103.9500         3
 104.0000         8
 104.0500         6
 104.1000         6
 104.1500         9
 104.2000         3
 104.2500         3
 104.3000         5
 104.3500        10
 104.4000         7
 104.4500         7
 104.5000         6
 104.5500         3
 104.6000         4
 104.6500         3
 104.7000        10
 104.7500         5
 104.8000         4
 104.8500         6
 104.9000         8
 104.9500         8
 105.0000         2
 105.0500         7
 105.1000         4
 105.1500         5
 105.2000         6
 105.2500         3
 105.3000         8
 105.3500         4
 105.4000         6
 105.4500        10
 105.5000         4
 105.5500        17
 105.6000         6
 105.6500         8
 105.7000         8
 105.7500         6
 105.8000         7
 105.8500         2
 105.9000         4
 105.9500         4
 106.0000         4
 106.0500         6
 106.1000        10
 106.1500        10
 106.2000         3
 106.2500         2
 106.3000         8
 106.3500         6
 106.4000        12
 106.4500         6
 106.5000         7
 106.5500         7
 106.6000         8
 106.6500        14
 106.7000         7
 106.7500         6
 106.8000         6
 106.8500         5
 106.9000         3
 106.9500         2
 107.0000         3
 107.0500         7
 107.1000         5
 107.1500         4
 107.2000         7
 107.2500         4
 107.3000         5
 107.3500         7
 107.4000         9
 107.4500         8
 107.5000         6
 107.5500        10
 107.6000         7
 107.6500        17
 107.7000        11
 107.7500        14
 107.8000        25
 107.8500        25
 107.9000        40
 107.9500        55
 108.0000        60
 108.0500        54
 108.1000        36
 108.1500        24
 108.2000        22
 108.2500        21
 108.3000        24
 108.3500        26
 108.4000        46
 108.4500        16
 108.5000        27
 108.5500        15
 108.6000         8
 108.6500        11
 108.7000        13
 108.7500         5
 108.8000         8
 108.8500         3
 108.9000         6
 108.9500         6
 109.0000         8
 109.0500         4
 109.1000         7
 109.1500         8
 109.2000         6
 109.2500         9
 109.3000        10
 109.3500         3
 109.4000         4
 109.4500         5
 109.5000         5
 109.5500         9
 109.6000        11
 109.6500         5
 109.7000         8
 109.7500        12
 109.8000         7
 109.8500         6
 109.9000         7
 109.9500         7
 110.0000         2
