  10.0000         4
  10.0500         6
  10.1000         6
  10.1500         5
  10.2000         6
  10.2500         5
  10.3000         7
  10.3500         6
  10.4000         5
  10.4500         5
  10.5000         3
  10.5500         7
  10.6000         6
  10.6500         7
  10.7000         3
  10.7500         2
  10.8000         7
  10.8500         8
  10.9000         7
  10.9500         3
  11.0000         4
  11.0500         6
  11.1000         3
  11.1500         6
  11.2000         3
  11.2500         4
  11.3000         9
  11.3500         4
  11.4000         7
  11.4500         5
  11.5000         4
  11.5500         4
  11.6000         7
  11.6500         5
  11.7000         2
  11.7500         5
  11.8000         1
  11.8500         3
  11.9000         3
  11.9500         3
  12.0000         4
  12.0500         5
  12.1000         3
  12.1500         1
  12.2000         2
  12.2500         2
  12.3000         6
  12.3500         5
  12.4000         9
  12.4500         2
  12.5000         2
  12.5500         6
  12.6000         6
  12.6500         5
  12.7000         4
  12.7500         9
  12.8000         4
  12.8500         2
  12.9000         6
  12.9500         4
  13.0000         3
  13.0500         3
  13.1000         6
  13.1500         1
  13.2000         2
  13.2500         4
  13.3000         4
  13.3500         2
  13.4000         3
  13.4500         6
  13.5000         6
  13.5500         7
  13.6000         5
  13.6500         6
  13.7000         7
  13.7500         8
  13.8000         2
  13.8500         2
  13.9000         3
  13.9500         3
  14.0000         5
  14.0500         2
  14.1000        10
  14.1500         4
  14.2000         2
  14.2500         3
  14.3000         8
  14.3500         4
  14.4000         3
  14.4500         1
  14.5000         6
  14.5500         2
  14.6000         2
  14.6500         5
  14.7000         3
  14.7500         1
  14.8000         6
  14.8500         5
  14.9000         3
  14.9500         8
  15.0000         6
  15.0500         2
  15.1000         2
  15.1500         3
  15.2000         5
  15.2500         2
  15.3000         3
  15.3500         4
  15.4000         5
  15.4500         2
  15.5000         3
  15.5500         8
  15.6000         1
  15.6500         4
  15.7000         4
  15.7500         0
  15.8000         7
  15.8500         0
  15.9000         6
  15.9500         4
  16.0000         4
  16.0500         2
  16.1000         1
  16.1500         6
  16.2000         5
  16.2500         5
  16.3000         3
  16.3500         5
  16.4000         4
  16.4500         2
  16.5000         1
  16.5500         8
  16.6000         4
  16.6500         1
  16.7000         4
  16.7500         2
  16.8000         3
  16.8500         2
  16.9000         1
  16.9500         4
  17.0000         0
  17.0500         1
  17.1000         6
  17.1500         2
  17.2000         4
  17.2500         1
  17.3000         2
  17.3500         5
  17.4000         5
  17.4500         5
  17.5000         3
  17.5500         6
  17.6000         2
  17.6500         2
  17.7000         4
  17.7500         6
  17.8000         6
  17.8500         4
  17.9000         4
  17.9500         6
  18.0000         5
  18.0500         3
  18.1000         0
  18.1500         6
  18.2000         4
  18.2500         4
  18.3000         2
  18.3500         1
  18.4000         6
  18.4500         5
  18.5000         2
  18.5500         5
  18.6000         6
  18.6500         1
  18.7000         3
  18.7500         2
  18.8000         2
  18.8500         1
  18.9000         3
  18.9500         2
  19.0000         0
  19.0500         3
  19.1000         1
  19.1500         4
  19.2000         2
  19.2500         5
  19.3000         1
  19.3500         6
  19.4000         1
  19.4500         4
  19.5000         3
  19.5500        10
  19.6000         3
  19.6500         0
  19.7000         3
  19.7500         5
  19.8000         3
  19.8500         3
  19.9000         4
  19.9500         4
  20.0000         2
  20.0500         6
  20.1000         5
  20.1500         4
  20.2000         4
  20.2500         4
  20.3000         5
  20.3500         7
  20.4000         1
  20.4500         3
  20.5000         1
  20.5500         2
  20.6000         7
  20.6500         2
  20.7000         3
  20.7500         4
  20.8000         3
  20.8500         6
  20.9000         4
  20.9500         3
  21.0000         4
  21.0500         3
  21.1000         3
  21.1500         5
  21.2000         4
  21.2500         6
  21.3000         4
  21.3500         3
  21.4000         3
  21.4500         8
  21.5000         2
  21.5500         3
  21.6000         7
  21.6500         3
  21.7000         2
  21.7500         4
  21.8000         7
  21.8500         2
  21.9000         5
  21.9500         3
  22.0000         4
  22.0500         3
  22.1000         3
  22.1500         2
  22.2000         6
  22.2500         4
  22.3000         5
  22.3500         3
  22.4000         3
  22.4500         2
  22.5000         3
  22.5500         4
  22.6000         1
  22.6500         4
  22.7000         6
  22.7500         5
  22.8000         5
  22.8500         6
  22.9000         5
  22.9500         4
  23.0000         7
  23.0500         5
  23.1000         1
  23.1500         4
  23.2000         2
  23.2500         2
  23.3000         2
  23.3500         3
  23.4000         7
  23.4500         7
  23.5000         1
  23.5500         4
  23.6000         5
  23.6500         7
  23.7000         3
  23.7500         1
  23.8000         4
  23.8500         2
  23.9000         2
  23.9500         4
  24.0000         6
  24.0500         1
  24.1000         2
  24.1500         4
  24.2000         7
  24.2500         3
  24.3000         9
  24.3500         3
  24.4000         0
  24.4500         3
  24.5000         1
  24.5500         6
  24.6000         4
  24.6500         3
  24.7000         3
  24.7500         2
  24.8000         5
  24.8500         4
  24.9000         4
  24.9500         6
  25.0000         7
  25.0500         6
  25.1000         3
  25.1500         6
  25.2000         7
  25.2500         5
  25.3000         4
  25.3500         3
  25.4000         2
  25.4500         4
  25.5000         2
  25.5500         8
  25.6000         2
  25.6500         3
  25.7000         4
  25.7500         5
  25.8000         5
  25.8500         6
  25.9000         0
  25.9500         6
  26.0000         4
  26.0500         3
  26.1000         2
  26.1500         5
  26.2000         4
  26.2500         6
  26.3000         6
  26.3500         7
  26.4000        11
  26.4500         2
  26.5000         7
  26.5500         8
  26.6000         5
  26.6500         9
  26.7000         5
  26.7500         5
  26.8000         8
  26.8500         4
  26.9000         6
  26.9500         7
  27.0000         2
  27.0500         4
  27.1000         7
  27.1500         2
  27.2000         7
  27.2500         5
  27.3000         5
  27.3500         6
  27.4000         4
  27.4500         6
  27.5000         6
  27.5500         4
  27.6000         4
  27.6500         5
  27.7000         3
  27.7500         6
  27.8000         4
  27.8500         3
  27.9000         6
  27.9500         8
  28.0000         8
  28.0500         3
  28.1000         6
  28.1500         4
  28.2000         5
  28.2500         4
  28.3000        16
  28.3500         4
  28.4000         7
  28.4500         8
  28.5000         4
  28.5500        10
  28.6000         3
  28.6500         3
  28.7000         8
  28.7500         7
  28.8000         4
  28.8500         1
  28.9000         6
  28.9500         4
  29.0000        10
  29.0500         4
  29.1000         6
  29.1500        15
  29.2000         7
  29.2500         6
  29.3000         8
  29.3500         9
  29.4000         6
  29.4500         5
  29.5000         4
  29.5500         4
  29.6000        11
  29.6500         4
  29.7000        10
  29.7500        12
  29.8000         8
  29.8500         9
  29.9000         7
  29.9500         5
  30.0000         6
  30.0500         9
  30.1000         3
  30.1500         5
  30.2000        10
  30.2500         8
  30.3000         9
  30.3500         3
  30.4000        10
  30.4500        25
  30.5000        14
  30.5500        17
  30.6000        36
  30.6500        75
  30.7000        82
  30.7500       103
  30.8000        72
  30.8500        38
  30.9000        21
  30.9500        17
  31.0000        27
  31.0500        22
  31.1000        42
  31.1500        65
  31.2000        98
  31.2500       194
  31.3000       342
  31.3500       804
  31.4000       976
  31.4500       860
  31.5000       454
  31.5500       216
  31.6000        79
  31.6500        29
  31.7000        24
  31.7500        30
  31.8000        16
  31.8500        22
  31.9000        16
  31.9500        31
  32.0000        35
  32.0500       105
  32.1000       181
  32.1500       171
  32.2000       135
  32.2500        54
  32.3000        32
  32.3500         8
  32.4000        13
  32.4500        13
  32.5000         7
  32.5500         4
  32.6000        11
  32.6500        12
  32.7000         9
  32.7500         7
  32.8000         5
  32.8500         7
  32.9000        10
  32.9500         6
  33.0000         4
  33.0500         1
  33.1000         5
  33.1500        12
  33.2000        12
  33.2500         4
  33.3000         6
  33.3500         6
  33.4000         3
  33.4500         9
  33.5000         8
  33.5500         8
  33.6000        10
  33.6500         3
  33.7000         4
  33.7500         8
  33.8000         8
  33.8500         1
  33.9000        15
  33.9500         3
  34.0000         4
  34.0500         7
  34.1000         7
  34.1500         7
  34.2000         5
  34.2500         9
  34.3000         2
  34.3500         5
  34.4000         8
  34.4500         8
  34.5000         4
  34.5500         8
  34.6000         5
  34.6500         7
  34.7000         4
  34.7500         8
  34.8000         3
  34.8500         8
  34.9000         8
  34.9500         4
  35.0000         9
  35.0500         7
  35.1000         6
  35.1500         6
  35.2000         6
  35.2500         9
  35.3000         9
  35.3500        10
  35.4000        10
  35.4500         7
  35.5000         8
  35.5500         4
  35.6000         9
  35.6500         5
  35.7000         5
  35.7500         9
  35.8000        12
  35.8500         3
  35.9000        12
  35.9500        12
  36.0000         6
  36.0500        13
  36.1000        42
  36.1500        36
  36.2000        44
  36.2500       113
  36.3000       193
  36.3500       321
  36.4000       362
  36.4500       326
  36.5000       218
  36.5500       123
  36.6000        56
  36.6500        15
  36.7000        20
  36.7500        12
  36.8000        12
  36.8500        11
  36.9000        13
  36.9500        10
  37.0000        14
  37.0500         8
  37.1000         8
  37.1500         6
  37.2000         6
  37.2500         5
  37.3000         6
  37.3500         2
  37.4000         4
  37.4500         4
  37.5000         6
  37.5500         5
  37.6000         5
  37.6500         5
  37.7000         4
  37.7500         5
  37.8000         4
  37.8500         1
  37.9000         5
  37.9500        11
  38.0000         7
  38.0500        12
  38.1000         3
  38.1500         4
  38.2000         3
  38.2500         7
  38.3000         5
  38.3500        10
  38.4000         4
  38.4500         6
  38.5000         9
  38.5500         4
  38.6000         4
  38.6500         5
  38.7000         4
  38.7500         3
  38.8000         3
  38.8500         4
  38.9000         8
  38.9500         4
  39.0000         5
  39.0500         5
  39.1000         3
  39.1500         5
  39.2000         4
  39.2500         4
  39.3000         4
  39.3500         6
  39.4000         3
  39.4500         4
  39.5000         4
  39.5500         5
  39.6000         6
  39.6500         5
  39.7000         2
  39.7500         4
  39.8000         0
  39.8500         3
  39.9000         6
  39.9500         6
  40.0000         4
  40.0500         3
  40.1000         4
  40.1500         5
  40.2000         8
  40.2500         7
  40.3000         7
  40.3500         5
  40.4000         8
  40.4500         7
  40.5000         8
  40.5500         4
  40.6000         5
  40.6500         6
  40.7000         6
  40.7500         7
  40.8000         6
  40.8500         1
  40.9000         6
  40.9500         5
  41.0000         3
  41.0500         3
  41.1000         7
  41.1500         3
  41.2000         2
  41.2500         6
  41.3000         3
  41.3500         1
  41.4000         3
  41.4500         7
  41.5000         2
  41.5500         3
  41.6000         2
  41.6500         5
  41.7000         6
  41.7500         2
  41.8000         1
  41.8500         5
  41.9000         3
  41.9500         3
  42.0000         5
  42.0500         5
  42.1000         8
  42.1500         4
  42.2000         4
  42.2500         4
  42.3000         5
  42.3500         4
  42.4000         3
  42.4500         4
  42.5000         3
  42.5500         6
  42.6000         6
  42.6500         4
  42.7000         3
  42.7500         6
  42.8000         7
  42.8500         3
  42.9000         5
  42.9500         5
  43.0000         3
  43.0500         1
  43.1000         7
  43.1500         2
  43.2000         2
  43.2500         3
  43.3000         7
  43.3500         8
  43.4000         4
  43.4500         2
  43.5000         7
  43.5500         6
  43.6000         3
  43.6500         2
  43.7000         7
  43.7500         5
  43.8000         5
  43.8500        12
  43.9000        14
  43.9500        22
  44.0000        31
  44.0500        28
  44.1000        12
  44.1500         9
  44.2000         6
  44.2500         3
  44.3000         2
  44.3500         7
  44.4000         6
  44.4500         8
  44.5000         4
  44.5500         5
  44.6000         6
  44.6500         7
  44.7000         6
  44.7500         6
  44.8000        13
  44.8500        12
  44.9000        60
  44.9500        98
  45.0000       122
  45.0500       169
  45.1000        87
  45.1500        60
  45.2000        30
  45.2500         5
  45.3000         5
  45.3500         9
  45.4000         3
  45.4500         4
  45.5000         5
  45.5500         2
  45.6000         5
  45.6500         3
  45.7000         8
  45.7500         4
  45.8000         7
  45.8500         9
  45.9000         5
  45.9500         5
  46.0000         5
  46.0500         5
  46.1000         5
  46.1500         3
  46.2000         3
  46.2500         7
  46.3000         2
  46.3500         6
  46.4000         4
  46.4500         4
  46.5000         4
  46.5500         2
  46.6000         3
  46.6500         3
  46.7000         5
  46.7500         2
  46.8000         1
  46.8500        10
  46.9000         5
  46.9500         2
  47.0000         5
  47.0500         2
  47.1000         2
  47.1500         6
  47.2000         2
  47.2500         1
  47.3000         7
  47.3500         6
  47.4000         9
  47.4500         5
  47.5000         3
  47.5500         9
  47.6000         7
  47.6500         6
  47.7000         4
  47.7500         3
  47.8000         5
  47.8500         3
  47.9000         4
  47.9500         5
  48.0000         1
  48.0500         4
  48.1000         4
  48.1500         3
  48.2000         7
  48.2500         5
  48.3000         3
  48.3500         4
  48.4000         2
  48.4500         3
  48.5000         5
  48.5500         8
  48.6000         1
  48.6500         0
  48.7000         2
  48.7500        10
  48.8000         2
  48.8500         3
  48.9000         2
  48.9500         6
  49.0000         6
  49.0500         1
  49.1000         7
  49.1500         4
  49.2000         5
  49.2500         3
  49.3000         0
  49.3500         4
  49.4000         6
  49.4500         9
  49.5000         3
  49.5500         5
  49.6000         0
  49.6500         5
  49.7000         4
  49.7500         4
  49.8000         2
  49.8500         2
  49.9000         4
  49.9500         2
  50.0000         5
  50.0500         8
  50.1000         5
  50.1500         5
  50.2000         4
  50.2500         7
  50.3000         9
  50.3500         2
  50.4000         6
  50.4500        10
  50.5000         4
  50.5500         5
  50.6000         4
  50.6500         2
  50.7000         2
  50.7500         2
  50.8000         5
  50.8500         5
  50.9000         4
  50.9500         2
  51.0000         7
  51.0500         7
  51.1000         9
  51.1500         3
  51.2000         6
  51.2500         5
  51.3000         8
  51.3500        10
  51.4000         2
  51.4500         9
  51.5000         1
  51.5500         6
  51.6000         6
  51.6500         5
  51.7000         4
  51.7500        10
  51.8000         8
  51.8500         7
  51.9000        11
  51.9500         3
  52.0000         9
  52.0500        10
  52.1000        11
  52.1500        17
  52.2000        28
  52.2500        46
  52.3000       117
  52.3500       185
  52.4000       154
  52.4500       134
  52.5000       111
  52.5500        75
  52.6000        27
  52.6500        14
  52.7000        13
  52.7500        11
  52.8000         7
  52.8500         6
  52.9000         9
  52.9500        12
  53.0000         7
  53.0500         3
  53.1000         2
  53.1500         2
  53.2000         6
  53.2500         2
  53.3000         7
  53.3500         9
  53.4000         4
  53.4500         4
  53.5000         5
  53.5500         4
  53.6000         9
  53.6500         9
  53.7000         7
  53.7500         2
  53.8000         7
  53.8500         4
  53.9000         5
  53.9500         6
  54.0000         6
  54.0500         4
  54.1000         5
  54.1500         5
  54.2000         4
  54.2500         3
  54.3000         5
  54.3500         3
  54.4000         4
  54.4500         5
  54.5000         5
  54.5500         5
  54.6000         5
  54.6500         5
  54.7000         5
  54.7500         8
  54.8000         5
  54.8500         3
  54.9000         7
  54.9500         4
  55.0000         4
  55.0500         6
  55.1000         0
  55.1500         6
  55.2000         7
  55.2500         7
  55.3000         7
  55.3500        12
  55.4000        23
  55.4500        27
  55.5000        14
  55.5500        19
  55.6000        12
  55.6500        11
  55.7000         8
  55.7500         4
  55.8000         5
  55.8500         5
  55.9000         5
  55.9500         9
  56.0000         6
  56.0500         6
  56.1000         7
  56.1500         3
  56.2000         5
  56.2500         3
  56.3000         2
  56.3500         6
  56.4000         9
  56.4500         3
  56.5000         7
  56.5500         2
  56.6000        11
  56.6500         5
  56.7000         5
  56.7500         6
  56.8000         4
  56.8500         3
  56.9000         3
  56.9500         3
  57.0000         5
  57.0500         3
  57.1000        13
  57.1500         0
  57.2000         5
  57.2500         6
  57.3000         5
  57.3500         5
  57.4000         4
  57.4500         7
  57.5000         7
  57.5500         3
  57.6000         2
  57.6500         3
  57.7000         3
  57.7500         6
  57.8000         7
  57.8500         1
  57.9000         5
  57.9500         5
  58.0000         6
  58.0500         2
  58.1000         2
  58.1500         5
  58.2000         8
  58.2500         2
  58.3000         7
  58.3500         9
  58.4000         4
  58.4500         3
  58.5000         3
  58.5500         4
  58.6000         5
  58.6500         5
  58.7000         1
  58.7500         6
  58.8000         5
  58.8500         4
  58.9000         6
  58.9500         7
  59.0000         5
  59.0500         9
  59.1000         3
  59.1500         7
  59.2000         7
  59.2500         4
  59.3000        10
  59.3500        10
  59.4000         2
  59.4500         4
  59.5000         3
  59.5500         2
  59.6000         2
  59.6500         8
  59.7000         6
  59.7500         6
  59.8000         7
  59.8500         7
  59.9000         8
  59.9500         4
  60.0000         4
  60.0500         3
  60.1000         4
  60.1500         3
  60.2000         5
  60.2500         2
  60.3000         7
  60.3500         3
  60.4000        10
  60.4500         3
  60.5000         6
  60.5500         2
  60.6000         7
  60.6500        11
  60.7000         3
  60.7500         8
  60.8000         6
  60.8500         7
  60.9000         9
  60.9500         9
  61.0000        12
  61.0500         7
  61.1000         4
  61.1500         8
  61.2000         3
  61.2500         6
  61.3000         2
  61.3500         9
  61.4000         7
  61.4500         6
  61.5000         5
  61.5500         6
  61.6000         5
  61.6500         7
  61.7000         9
  61.7500         9
  61.8000         3
  61.8500        14
  61.9000        11
  61.9500         9
  62.0000        13
  62.0500        19
  62.1000        27
  62.1500        55
  62.2000        71
  62.2500       166
  62.3000       158
  62.3500       129
  62.4000       119
  62.4500       100
  62.5000        70
  62.5500        65
  62.6000       117
  62.6500        67
  62.7000        28
  62.7500        44
  62.8000        28
  62.8500        24
  62.9000        20
  62.9500        14
  63.0000         6
  63.0500         9
  63.1000         4
  63.1500         9
  63.2000         7
  63.2500         6
  63.3000         5
  63.3500        13
  63.4000         9
  63.4500         7
  63.5000         6
  63.5500         5
  63.6000         6
  63.6500         2
  63.7000         5
  63.7500        12
  63.8000         2
  63.8500        10
  63.9000        17
  63.9500        12
  64.0000         9
  64.0500        13
  64.1000        10
  64.1500         5
  64.2000         8
  64.2500         3
  64.3000         6
  64.3500         2
  64.4000         8
  64.4500         2
  64.5000        11
  64.5500        11
  64.6000        11
  64.6500        35
  64.7000        37
  64.7500        39
  64.8000        18
  64.8500        31
  64.9000        17
  64.9500         7
  65.0000         7
  65.0500        11
  65.1000        14
  65.1500        13
  65.2000        11
  65.2500        16
  65.3000        27
  65.3500        91
  65.4000        69
  65.4500        56
  65.5000        32
  65.5500        43
  65.6000        38
  65.6500        16
  65.7000        11
  65.7500        13
  65.8000         4
  65.8500         7
  65.9000         6
  65.9500         3
  66.0000         9
  66.0500         6
  66.1000         7
  66.1500         5
  66.2000         9
  66.2500         6
  66.3000         7
  66.3500         4
  66.4000         7
  66.4500         8
  66.5000         3
  66.5500         7
  66.6000         3
  66.6500         4
  66.7000         4
  66.7500        13
  66.8000         4
  66.8500         5
  66.9000         5
  66.9500         2
  67.0000         4
  67.0500         3
  67.1000         0
  67.1500         5
  67.2000         5
  67.2500         7
  67.3000         1
  67.3500         4
  67.4000         5
  67.4500         3
  67.5000         6
  67.5500         6
  67.6000         7
  67.6500         2
  67.7000         3
  67.7500         2
  67.8000         2
  67.8500         6
  67.9000         3
  67.9500         3
  68.0000         7
  68.0500         8
  68.1000         5
  68.1500         4
  68.2000         4
  68.2500         5
  68.3000         6
  68.3500         3
  68.4000         7
  68.4500         4
  68.5000         3
  68.5500         3
  68.6000         1
  68.6500         3
  68.7000         5
  68.7500         1
  68.8000         1
  68.8500         2
  68.9000         3
  68.9500         8
  69.0000         2
  69.0500         3
  69.1000         4
  69.1500         6
  69.2000         2
  69.2500         5
  69.3000         5
  69.3500         4
  69.4000         5
  69.4500         6
  69.5000         5
  69.5500         2
  69.6000         2
  69.6500         7
  69.7000         3
  69.7500         6
  69.8000         2
  69.8500         7
  69.9000         7
  69.9500         2
  70.0000         3
  70.0500         2
  70.1000         4
  70.1500         4
  70.2000         3
  70.2500         4
  70.3000         3
  70.3500         3
  70.4000         2
  70.4500         3
  70.5000         7
  70.5500         7
  70.6000         7
  70.6500         2
  70.7000         6
  70.7500         5
  70.8000         2
  70.8500         2
  70.9000         2
  70.9500         4
  71.0000         4
  71.0500         3
  71.1000         0
  71.1500         2
  71.2000         3
  71.2500         2
  71.3000         3
  71.3500         7
  71.4000         7
  71.4500         2
  71.5000         2
  71.5500         5
  71.6000         6
  71.6500         6
  71.7000         4
  71.7500         3
  71.8000         6
  71.8500         2
  71.9000         3
  71.9500         4
  72.0000         5
  72.0500         2
  72.1000        13
  72.1500         8
  72.2000         2
  72.2500         6
  72.3000         7
  72.3500         9
  72.4000         4
  72.4500         8
  72.5000        11
  72.5500         9
  72.6000         5
  72.6500         4
  72.7000         5
  72.7500         5
  72.8000         3
  72.8500         0
  72.9000         7
  72.9500         2
  73.0000         3
  73.0500         2
  73.1000         3
  73.1500         5
  73.2000        14
  73.2500        27
  73.3000        24
  73.3500        13
  73.4000        13
  73.4500        15
  73.5000        10
  73.5500        12
  73.6000        12
  73.6500         3
  73.7000         6
  73.7500         4
  73.8000         7
  73.8500         6
  73.9000         2
  73.9500         9
  74.0000         4
  74.0500         3
  74.1000         2
  74.1500         4
  74.2000         3
  74.2500         4
  74.3000         2
  74.3500         3
  74.4000         2
  74.4500         7
  74.5000         9
  74.5500         3
  74.6000         5
  74.6500         5
  74.7000         5
  74.7500         5
  74.8000         5
  74.8500         3
  74.9000         4
  74.9500         1
  75.0000         4
  75.0500         3
  75.1000         4
  75.1500         4
  75.2000         5
  75.2500         3
  75.3000         4
  75.3500         6
  75.4000         6
  75.4500         7
  75.5000         3
  75.5500         6
  75.6000         2
  75.6500         2
  75.7000         1
  75.7500         3
  75.8000         7
  75.8500         2
  75.9000         4
  75.9500         4
  76.0000         1
  76.0500         3
  76.1000         2
  76.1500         1
  76.2000         5
  76.2500         4
  76.3000         4
  76.3500         4
  76.4000         4
  76.4500         0
  76.5000         3
  76.5500         3
  76.6000         7
  76.6500         2
  76.7000         1
  76.7500         4
  76.8000         5
  76.8500         3
  76.9000         7
  76.9500         6
  77.0000        10
  77.0500        16
  77.1000        24
  77.1500        17
  77.2000        17
  77.2500        11
  77.3000        13
  77.3500        19
  77.4000        17
  77.4500        11
  77.5000         8
  77.5500         8
  77.6000         2
  77.6500         7
  77.7000         4
  77.7500         4
  77.8000         4
  77.8500         5
  77.9000         3
  77.9500         2
  78.0000         5
  78.0500         5
  78.1000         3
  78.1500         6
  78.2000         5
  78.2500         4
  78.3000         4
  78.3500         4
  78.4000         4
  78.4500         5
  78.5000         2
  78.5500         9
  78.6000         4
  78.6500         3
  78.7000         5
  78.7500         7
  78.8000         3
  78.8500         5
  78.9000         8
  78.9500         3
  79.0000         5
  79.0500         4
  79.1000         2
  79.1500         3
  79.2000         4
  79.2500         4
  79.3000         7
  79.3500         3
  79.4000         2
  79.4500         4
  79.5000         6
  79.5500        29
  79.6000        35
  79.6500        19
  79.7000         7
  79.7500        12
  79.8000        26
  79.8500        18
  79.9000        10
  79.9500         9
  80.0000         4
  80.0500         3
  80.1000         4
  80.1500         4
  80.2000         6
  80.2500         5
  80.3000         3
  80.3500         6
  80.4000         2
  80.4500         3
  80.5000         4
  80.5500         4
  80.6000         4
  80.6500         0
  80.7000         2
  80.7500         2
  80.8000         2
  80.8500         1
  80.9000         3
  80.9500         7
  81.0000         3
  81.0500         5
  81.1000         4
  81.1500         2
  81.2000         3
  81.2500         4
  81.3000         2
  81.3500         5
  81.4000         3
  81.4500         3
  81.5000         6
  81.5500         5
  81.6000         7
  81.6500         4
  81.7000         5
  81.7500         6
  81.8000         2
  81.8500         2
  81.9000         6
  81.9500         5
  82.0000         2
  82.0500         2
  82.1000         2
  82.1500         5
  82.2000         6
  82.2500         3
  82.3000         7
  82.3500         3
  82.4000         5
  82.4500         4
  82.5000         6
  82.5500         4
  82.6000         7
  82.6500         5
  82.7000         2
  82.7500         4
  82.8000         4
  82.8500         4
  82.9000         2
  82.9500         7
  83.0000         4
  83.0500         6
  83.1000         5
  83.1500         4
  83.2000         2
  83.2500         4
  83.3000         3
  83.3500         3
  83.4000         2
  83.4500         2
  83.5000         4
  83.5500        10
  83.6000         4
  83.6500         5
  83.7000         4
  83.7500         6
  83.8000         4
  83.8500         3
  83.9000         5
  83.9500         4
  84.0000         5
  84.0500         3
  84.1000         3
  84.1500         4
  84.2000         2
  84.2500         7
  84.3000         3
  84.3500         3
  84.4000         2
  84.4500         7
  84.5000         5
  84.5500         5
  84.6000         4
  84.6500         0
  84.7000         4
  84.7500         3
  84.8000         5
  84.8500         3
  84.9000         8
  84.9500         8
  85.0000         5
  85.0500         4
  85.1000         2
  85.1500        10
  85.2000         7
  85.2500         2
  85.3000         9
  85.3500         7
  85.4000         9
  85.4500        12
  85.5000        20
  85.5500        38
  85.6000        43
  85.6500        42
  85.7000        26
  85.7500        22
  85.8000        34
  85.8500        32
  85.9000        23
  85.9500        14
  86.0000        13
  86.0500         8
  86.1000         9
  86.1500        11
  86.2000         8
  86.2500         6
  86.3000         3
  86.3500         4
  86.4000         5
  86.4500        11
  86.5000         3
  86.5500         6
  86.6000         5
  86.6500         2
  86.7000         5
  86.7500         5
  86.8000         6
  86.8500         9
  86.9000         7
  86.9500        11
  87.0000        10
  87.0500         4
  87.1000         2
  87.1500         4
  87.2000         3
  87.2500         3
  87.3000         4
  87.3500         4
  87.4000         6
  87.4500         3
  87.5000         5
  87.5500         5
  87.6000         3
  87.6500         7
  87.7000         6
  87.7500         8
  87.8000         5
  87.8500         3
  87.9000         4
  87.9500         7
  88.0000         9
  88.0500        11
  88.1000         7
  88.1500         9
  88.2000        14
  88.2500        26
  88.3000        35
  88.3500        43
  88.4000        36
  88.4500        49
  88.5000        23
  88.5500        24
  88.6000        33
  88.6500        22
  88.7000        18
  88.7500        17
  88.8000        11
  88.8500         7
  88.9000         3
  88.9500         8
  89.0000         6
  89.0500         5
  89.1000         8
  89.1500         5
  89.2000         3
  89.2500         7
  89.3000        10
  89.3500         6
  89.4000        10
  89.4500        12
  89.5000        20
  89.5500        18
  89.6000        11
  89.6500         3
  89.7000         4
  89.7500        10
  89.8000        13
  89.8500        14
  89.9000         5
  89.9500         8
  90.0000         8
  90.0500        11
  90.1000         5
  90.1500         5
  90.2000         5
  90.2500         8
  90.3000         4
  90.3500         5
  90.4000         6
  90.4500         3
  90.5000         4
  90.5500         5
  90.6000         4
  90.6500         5
  90.7000         3
  90.7500         6
  90.8000         8
  90.8500         0
  90.9000         1
  90.9500         3
  91.0000         4
  91.0500         6
  91.1000         4
  91.1500         3
  91.2000         1
  91.2500         2
  91.3000         1
  91.3500         3
  91.4000         5
  91.4500         2
  91.5000         3
  91.5500         6
  91.6000         1
  91.6500         8
  91.7000         4
  91.7500         3
  91.8000         4
  91.8500         4
  91.9000         3
  91.9500         7
  92.0000         5
  92.0500         3
  92.1000         2
  92.1500         7
  92.2000         3
  92.2500         5
  92.3000         4
  92.3500         1
  92.4000         3
  92.4500         6
  92.5000         8
  92.5500         2
  92.6000         2
  92.6500         5
  92.7000         2
  92.7500         5
  92.8000         5
  92.8500         4
  92.9000         3
  92.9500         4
  93.0000         5
  93.0500         5
  93.1000         3
  93.1500         4
  93.2000         3
  93.2500         2
  93.3000         4
  93.3500         4
  93.4000         6
  93.4500         5
  93.5000         6
  93.5500         1
  93.6000         9
  93.6500         4
  93.7000         8
  93.7500         2
  93.8000         2
  93.8500         5
  93.9000         5
  93.9500         6
  94.0000         5
  94.0500        10
  94.1000         6
  94.1500         4
  94.2000         3
  94.2500         4
  94.3000         1
  94.3500         5
  94.4000         7
  94.4500         3
  94.5000         3
  94.5500         3
  94.6000         4
  94.6500         3
  94.7000         1
  94.7500         4
  94.8000         2
  94.8500         5
  94.9000         3
  94.9500         4
  95.0000         7
  95.0500         4
  95.1000         6
  95.1500         8
  95.2000         4
  95.2500         7
  95.3000         8
  95.3500         7
  95.4000         8
  95.4500         4
  95.5000         5
  95.5500         9
  95.6000         4
  95.6500        13
  95.7000        13
  95.7500        11
  95.8000         3
  95.8500         5
  95.9000         8
  95.9500         3
  96.0000         7
  96.0500         9
  96.1000         6
  96.1500         1
  96.2000        12
  96.2500         4
  96.3000         3
  96.3500         2
  96.4000         4
  96.4500         0
  96.5000         7
  96.5500         2
  96.6000         7
  96.6500         5
  96.7000         8
  96.7500         3
  96.8000        14
  96.8500         6
  96.9000         7
  96.9500         4
  97.0000         5
  97.0500         4
  97.1000         6
  97.1500         6
  97.2000         3
  97.2500         7
  97.3000         6
  97.3500         5
  97.4000        11
  97.4500        10
  97.5000         7
  97.5500         8
  97.6000        10
  97.6500         4
  97.7000         7
  97.7500         3
  97.8000         5
  97.8500         7
  97.9000         4
  97.9500         3
  98.0000         4
  98.0500         7
  98.1000         5
  98.1500         7
  98.2000         6
  98.2500         5
  98.3000         3
  98.3500         6
  98.4000         7
  98.4500         6
  98.5000        10
  98.5500         4
  98.6000         4
  98.6500         5
  98.7000         5
  98.7500         5
  98.8000         2
  98.8500         3
  98.9000        11
  98.9500         4
  99.0000         5
  99.0500         6
  99.1000         3
  99.1500         6
  99.2000         7
  99.2500         4
  99.3000         6
  99.3500         6
  99.4000        14
  99.4500        21
  99.5000        37
  99.5500        31
  99.6000        25
  99.6500        20
  99.7000         9
  99.7500        14
  99.8000        21
  99.8500        19
  99.9000        19
  99.9500        13
 100.0000         8
 100.0500        14
 100.1000         9
 100.1500         3
 100.2000         6
 100.2500         8
 100.3000         9
 100.3500         8
 100.4000         6
 100.4500         5
 100.5000         4
 100.5500         5
 100.6000         5
 100.6500         1
 100.7000         6
 100.7500         6
 100.8000         4
 100.8500         4
 100.9000         6
 100.9500         3
 101.0000         9
 101.0500         9
 101.1000         6
 101.1500         6
 101.2000         8
 101.2500         0
 101.3000         7
 101.3500         5
 101.4000         8
 101.4500         5
 101.5000         6
 101.5500         6
 101.6000         3
 101.6500         6
 101.7000         6
 101.7500         8
 101.8000         7
 101.8500         6
 101.9000         4
 101.9500         6
 102.0000        10
 102.0500         4
 102.1000         1
 102.1500         3
 102.2000         2
 102.2500         3
 102.3000         5
 102.3500         6
 102.4000         3
 102.4500         2
 102.5000         5
 102.5500         4
 102.6000         4
 102.6500         5
 102.7000        12
 102.7500         7
 102.8000         4
 102.8500         3
 102.9000         6
 102.9500         7
 103.0000         9
 103.0500         8
 103.1000         4
 103.1500         8
 103.2000         6
 103.2500         6
 103.3000        13
 103.3500        12
 103.4000        13
 103.4500        13
 103.5000         2
 103.5500         4
 103.6000         8
 103.6500        14
 103.7000         7
 103.7500         4
 103.8000         3
 103.8500         4
 103.9000         5
 103.9500         2
 104.0000         6
 104.0500         2
 104.1000         4
 104.1500         0
 104.2000         4
 104.2500         5
 104.3000         8
 104.3500         5
 104.4000         6
 104.4500         6
 104.5000         3
 104.5500         4
 104.6000         1
 104.6500         7
 104.7000         3
 104.7500        10
 104.8000         6
 104.8500         5
 104.9000         3
 104.9500        12
 105.0000         7
 105.0500         5
 105.1000         4
 105.1500         5
 105.2000         4
 105.2500         9
 105.3000         0
 105.3500         5
 105.4000         4
 105.4500         2
 105.5000         5
 105.5500         4
 105.6000         4
 105.6500         5
 105.7000         2
 105.7500         5
 105.8000         4
 105.8500         5
 105.9000         1
 105.9500         4
 106.0000         6
 106.0500         6
 106.1000         6
 106.1500         3
 106.2000         1
 106.2500         2
 106.3000         4
 106.3500         7
 106.4000         1
 106.4500         4
 106.5000         6
 106.5500         7
 106.6000        11
 106.6500         3
 106.7000         5
 106.7500         9
 106.8000         6
 106.8500         2
 106.9000         1
 106.9500         3
 107.0000         8
 107.0500         7
 107.1000         1
 107.1500         8
 107.2000         3
 107.2500         7
 107.3000         2
 107.3500         4
 107.4000         3
 107.4500         4
 107.5000         7
 107.5500         8
 107.6000         6
 107.6500         8
 107.7000         6
 107.7500        11
 107.8000         9
 107.8500         7
 107.9000        13
 107.9500        13
 108.0000        26
 108.0500        26
 108.1000        27
 108.1500        31
 108.2000        21
 108.2500        11
 108.3000        21
 108.3500        19
 108.4000        15
 108.4500        23
 108.5000        17
 108.5500        22
 108.6000        15
 108.6500        17
 108.7000         4
 108.7500        10
 108.8000         6
 108.8500         7
 108.9000         4
 108.9500         7
 109.0000         4
 109.0500         7
 109.1000         9
 109.1500         6
 109.2000         4
 109.2500         7
 109.3000         8
 109.3500         5
 109.4000         4
 109.4500         4
 109.5000         6
 109.5500         8
 109.6000         8
 109.6500         8
 109.7000         3
 109.7500         6
 109.8000         8
 109.8500         3
 109.9000         4
 109.9500         6
 110.0000         6
